heart_rate,spo2,ecg,bp_systolic,bp_diastolic
98,93.95130907611504,0.12271164837867587,127,71
111,97.13206883282618,0.7656729813561582,126,89
88,91.99215274894053,0.055624216591241504,93,78
74,98.90215002636174,0.03525965679593446,91,68
102,92.8740959646558,0.1557541628818182,101,69
67,93.67785987756153,0.4986307102848688,124,78
80,90.58091952080349,0.9293809576569219,95,69
98,91.11512212321276,-0.8528732915684687,135,71
117,95.15861902712328,-0.8931307952179657,97,73
78,92.67592676727972,0.875100674814677,110,67
82,98.35480225742194,0.05975125103641221,135,75
70,90.14693388654953,0.22980602913387216,124,76
70,93.79094048671936,-0.035152796810542286,137,79
83,93.37345546769093,-0.812685094785051,104,63
112,90.19327630917601,0.5361787568373331,96,65
95,91.2436839900051,0.49444929017717376,104,71
99,94.13642674918636,-0.376593357014376,134,87
83,94.92864584447446,-0.3875215095431992,95,77
62,94.04289747254869,0.675682761811037,136,66
81,95.30937678412094,-0.8552854845173468,106,64
112,95.95131674905682,0.7622102967131317,93,69
61,90.09923821127836,-0.48667662020817115,111,65
83,94.64095159453504,0.18596949551098785,121,86
103,99.63499240887589,0.8719883580035555,111,73
89,95.19032280129548,0.3562450030732929,116,65
97,96.77542267458954,-0.17114037506592683,135,89
61,93.11863857916883,0.37906841781083034,104,73
119,97.73991378152762,-0.31204072736725963,133,71
80,97.72921481876115,-0.44548316730162774,111,89
92,95.21296047654138,0.9933665558693594,117,86
71,99.76013823279213,0.5015804623595754,131,81
117,91.25550214762653,0.28943995476363527,127,85
81,90.16947664889581,-0.28942071356136245,98,71
103,97.70158211757096,-0.9016783416899037,123,67
84,98.07155537364882,-0.9378862479296888,125,69
108,91.20207229120577,0.10836251089759763,98,75
86,92.65582832958606,0.5240654420781021,104,79
118,90.17552363366629,0.07475838088771014,134,85
101,92.93308610780565,0.6815701438782291,109,67
87,97.73141873918672,-0.9331469338135567,97,68
119,95.17960527712579,-0.2664958471481198,117,72
75,93.48095593168289,-0.5258592176516439,108,88
74,93.71739294906331,-0.10545406368575594,105,79
106,90.01353625715468,-0.855247213611755,100,76
110,92.99800527565236,0.9082632831421451,131,78
103,96.4645874163793,-0.5534891978612781,97,76
114,99.74194443816357,0.8446155509671696,122,66
111,98.47060826983899,-0.14821368992663642,99,87
116,90.2359496464553,0.9710482665104361,107,60
62,98.98560604674839,0.10811676692042149,124,86
96,97.83198413298626,0.8616657283516149,132,79
110,97.8037612357098,-0.9893020226115543,139,88
66,94.57995759003572,0.4964776123618002,92,73
80,93.98005292954502,0.8061013062050308,129,76
68,93.02915728833193,-0.7205588660420919,116,72
98,90.65694858954366,-0.807748296535697,117,88
77,92.282353634937,-0.15085478562808885,135,61
63,92.46603634978024,0.8673578122658703,95,86
84,94.84077069710202,0.08477312038087748,136,73
119,97.47444406596694,0.05491292744346432,103,60
73,94.73809828397947,-0.7177477634013563,96,88
109,90.57844449447161,-0.9984209778135624,99,64
117,99.57789800988203,0.6202801814909225,104,66
68,99.42724319094113,-0.8248508740275236,120,78
85,97.85189543148408,0.26769963747064796,118,73
112,99.9132790156422,0.8292329090303829,131,83
61,95.44482332800263,-0.582696173683138,106,73
79,99.62768350253207,0.3305456724738216,118,74
87,90.7560504061675,-0.8426028465849811,138,64
106,93.65680748261371,0.20751028767522595,133,64
119,92.25381268006765,-0.6721365580935945,104,88
66,91.9583308413427,0.47190712103035604,115,80
103,91.40802948892676,-0.3975374104121836,101,83
67,96.22413641565997,-0.07321798239070754,114,61
106,97.81321855747305,0.1988610840552434,130,77
94,95.7829839942036,-0.6574531786675208,94,89
73,91.4696270958821,0.4832756372352418,93,87
76,98.11123769933471,-0.3947193187263709,133,83
95,96.35954707163728,0.324743719825507,137,68
109,93.88165706126995,-0.6834338986012527,130,86
99,96.74130295536062,0.3762353184127005,120,87
63,92.59904979242833,-0.7436238543790765,92,69
61,93.45192208494211,-0.14928700746003276,92,85
65,99.1748584313199,-0.5055878525222464,115,77
113,92.9050450567142,0.49675049885636513,139,63
101,94.69988268157937,-0.4759299909862509,106,67
63,98.90141137396014,0.7634346127907925,99,77
113,97.07721350267528,0.7836404228132257,91,79
88,90.62203226164702,-0.6071173695544283,113,85
77,91.4730304427897,0.22769189001544854,100,88
85,90.07841590771916,-0.8245647165600714,113,88
103,96.30921790229164,-0.21692580079674162,124,76
93,94.47673425410419,0.4266434590025445,112,75
69,91.34274850902275,0.31884649369983253,121,77
95,99.5793412105677,0.2494013388132159,112,66
73,95.2965972394562,-0.43491827267511285,123,60
90,92.41893294112889,-0.24395010113119597,130,87
107,95.00603571154707,-0.7941077105994276,108,60
74,96.79620332735108,0.438045640867202,91,77
67,90.76239217973564,0.007777593582547038,91,63
73,92.74703815047891,0.4175312646913092,104,82
82,98.06965490883994,-0.5021129504062545,110,79
119,94.5966487040266,-0.35112354272986757,124,80
116,95.46577142032295,-0.3315693254797707,94,79
99,94.32816002209469,-0.9485151805055676,132,63
80,90.43899942643006,-0.3179042543387529,116,84
75,91.65749779820156,0.606609147036067,113,65
104,94.45541638741891,0.794596991499477,96,87
77,92.09185465407928,0.036436631271854925,95,62
106,90.49979028659679,-0.08899660956155953,135,65
112,98.43649664051824,-0.9383507626012595,122,72
83,99.81192529164116,0.7584086751707653,138,82
85,97.9314287399674,-0.9739795731482546,106,66
84,98.53784921704667,0.8895001604204236,135,83
119,92.41977130317045,-0.02156750262381868,131,88
119,99.60626975513199,-0.3161310128505468,119,63
119,91.96925704453429,0.8484368696853202,97,60
104,99.51429810361833,-0.9512180137798065,129,65
100,99.9481929396595,0.1628497897381742,135,83
88,97.1172280574605,0.09786504899867521,96,64
74,99.81143731791822,-0.5613591975772358,95,72
104,95.69539779567104,-0.14222513729957886,93,78
60,92.5954178317609,0.3045280118875404,90,63
84,94.36995885665621,0.454262393763855,104,83
66,95.93560935378785,-0.9985662825868404,120,65
68,90.73081562027015,0.8737068601820306,114,72
83,96.22343264617245,-0.6709492552143752,136,88
60,99.81177836762295,-0.5328391315552816,122,64
103,91.90107649783728,-0.47305310861230354,124,72
67,97.92595116288383,-0.9243597268959294,94,84
83,99.0789879377962,-0.7538957528193502,94,69
70,99.43701592820221,0.972699845888324,125,62
110,99.60135604405447,-0.3695665252454279,106,82
76,95.21459638721473,-0.7693978193219013,103,84
67,99.77307907991504,-0.7860174776507534,118,86
94,97.5731020713444,0.4389199353399438,97,72
94,91.61671436236962,0.7091373280652817,123,86
92,94.7690010646797,-0.48609540098306026,129,71
118,97.18331175372003,-0.9581809753295301,90,63
64,92.47340315819083,-0.5538199631092884,118,69
101,96.40615183548887,-0.8869686184064853,125,85
98,96.66600479046619,-0.793210126739917,126,62
117,91.62699743808565,-0.13698376030471526,118,76
100,95.65085312452756,-0.5401632582767348,94,68
87,97.71626910978608,0.03189175705084679,121,88
66,94.98895664535942,-0.49301249348561926,113,60
68,90.12103116776107,0.8810746022058953,108,77
67,90.09038469079292,0.811887935852529,101,68
71,93.57029343970012,0.13361221002093204,90,80
93,99.26194068431782,-0.29115201602522767,96,79
92,92.28676779603609,-0.23770623593052886,106,84
107,96.34363688871687,-0.1762954337110061,123,68
114,92.22075870693321,0.45515864426988806,132,61
82,93.21669989659549,-0.09672200896232419,96,78
83,98.48042089601483,0.7134598930117948,106,87
96,97.28861442269947,0.8881895718607291,92,75
94,90.9539927731321,-0.3281076932421323,118,62
103,94.28702020986434,0.12138896275136024,111,75
99,90.29169763645264,-0.8098869263348711,127,80
81,94.8089014660301,-0.599061904467282,132,72
86,96.62434011701068,-0.17306846657967978,118,62
94,91.18502623598151,-0.5875945681964423,139,69
60,92.88884938909166,0.7531209815774351,139,81
94,93.97836625502157,-0.6834274878818039,131,77
96,99.1953102465605,-0.08867835689381609,94,65
106,99.93255015422965,0.21139848091975133,119,65
73,90.44911298995616,0.38372781632168884,112,77
62,97.61007923495391,-0.23386126054698653,110,65
60,93.71724066402344,0.7381981374494571,115,65
64,93.9245818622948,0.13663830215585104,136,81
85,97.54264973347023,-0.12098443910489642,110,87
114,99.1842643214541,-0.8655187318959268,109,72
73,99.50928594502548,-0.07062106310966998,112,73
98,95.77122586038321,0.6414716816314605,93,80
86,93.57121159300503,0.22908203644263092,110,66
68,97.8754908585878,0.6643249074582367,110,72
74,92.510013832623,-0.011976658801388762,90,74
74,95.64074028833518,-0.7630765898110363,104,71
85,93.58578461524873,-0.9727203083282379,106,80
101,96.56631073707877,-0.3935609065628176,103,86
119,92.40398912893507,0.39598094299558495,108,60
72,91.91592945734826,0.5805198078833875,139,87
110,99.18239086675437,-0.40849433075934116,123,84
91,91.01803682949537,-0.008692158233505776,95,62
98,95.05957907734931,-0.15776219113183676,134,77
108,92.20852782963009,-0.17895443129714428,138,85
111,90.38929963325667,-0.537302573599699,95,81
91,90.36018818291426,-0.7272577899410833,94,67
63,91.75221772105827,-0.6066228835375738,96,61
89,98.66770354506001,-0.8893352256733078,122,63
96,92.82478743977026,-0.6037385163528459,102,77
82,99.50459170575296,-0.9815982047492411,90,87
98,95.81622292989194,0.2545168012719565,102,87
104,94.36614189768765,-0.36724918522463423,132,84
74,95.80088834669455,0.9462894228538172,116,85
102,95.16698385226267,-0.6125658984474043,96,72
88,97.58776253757325,-0.3083428593808122,92,74
95,92.82496065972852,-0.2843176827169336,114,61
72,93.53050391600303,-0.9830970078750789,122,69
91,98.9409430253325,0.6784159060789179,129,61
66,99.46456513150406,-0.9360110797113506,106,89
118,98.92558227486475,0.8803596694584828,134,88
110,94.19447993957314,0.7841487021872413,103,80
81,97.80365503006881,0.07104383217192711,126,71
87,94.76335733301099,0.08719114982258414,112,64
61,94.97539852146102,0.30755584591231266,113,71
101,92.04680109057284,-0.22589997613022605,118,82
104,95.91130303258517,0.29444456679571096,127,60
116,91.86135897753348,-0.9104632226230263,116,87
112,93.31564699067194,-0.8919047453005469,127,61
65,98.55030201619935,-0.08553916076091128,129,86
87,92.07075809210855,0.09924460221206988,134,75
87,90.71158285173433,0.775635280671638,139,86
103,90.69007592612816,-0.7906787321842075,112,81
103,99.40784520503108,0.6452958543877787,120,61
79,95.06920437961834,-0.5799053254158608,125,75
89,94.09412071817019,-0.21183270297993628,106,79
70,98.10878581007918,-0.3667951303451742,126,85
117,98.35825927910516,-0.19968945426920204,92,75
114,93.32191033115605,-0.6990090038548289,125,65
87,96.93618057473795,0.007140148807109892,94,72
84,97.71122815851886,0.6032851796627345,135,71
98,96.54650686865955,-0.11693197924220611,104,82
92,91.51595074800099,-0.01877284820360181,138,69
60,98.75883083517057,0.6975351705626285,95,64
116,95.39094552736009,0.4121162292760616,99,67
86,92.82472426370003,-0.019091182960430553,121,65
116,94.25228185437695,-0.48460870362164066,112,64
111,90.37571090398907,0.7698534936899333,137,79
72,91.27866801222417,0.1540408033811167,106,81
100,97.65546750515861,-0.5577047797786132,135,65
62,90.00011634755366,-0.4617604947239793,109,81
98,94.16565828482292,0.6062661778724918,133,76
65,95.22510181085589,-0.9117088758250891,130,65
67,90.54634420000973,0.9841843740576401,104,76
86,99.73078162972332,-0.7392966405704164,133,64
68,92.26125331249672,0.5921370507938748,135,82
96,93.04198719636281,-0.21044936645663426,111,76
92,93.03942512255027,-0.015567633425066285,139,88
110,92.3041666211735,0.7613011549291557,95,76
101,90.01473822086311,-0.1741776208215735,93,88
103,97.29344794087996,0.07498750734646897,112,72
83,99.66845499799285,-0.9014006751816601,133,81
74,92.24293483285045,-0.9953050522650937,134,66
118,96.63047191803423,-0.5104002539965482,108,81
113,97.41896326958715,0.36116618583753457,134,80
91,98.48425379090524,-0.7574702132817266,120,65
91,94.22629197013609,-0.7724760823909012,133,88
83,93.02930905640429,-0.17807878392819343,92,73
100,93.25295134023031,0.295674077216453,117,75
111,97.12621333098512,0.424143984495861,92,62
108,98.16779466505636,-0.6430986518032504,103,68
108,91.81613967756603,-0.8408237052559151,107,74
117,93.70941008157766,0.8807940678910884,116,80
111,99.0194019674915,-0.47866723487579654,99,77
71,98.0669351969474,0.7066929952174477,138,89
98,99.84858402762475,0.7269829009256366,104,89
61,97.5424825968208,0.5450451835250889,108,87
62,93.93195201027922,-0.6623327866948598,98,69
108,95.90637833994637,0.6436029185084007,93,69
96,96.6101425424732,0.5385011184831734,104,82
108,90.78455816317124,0.1934459802124342,137,62
115,95.44496959103866,-0.3255959296620945,97,60
76,97.0932082847261,-0.4749827914669118,138,62
118,91.67321304001061,-0.7562215758392821,90,84
108,97.80631717425557,0.019514133801742828,96,64
61,95.83772780514111,0.17052175101969302,120,66
61,99.52221785697594,-0.28132201896842557,107,62
87,90.42422298206891,-0.049281864638262896,101,63
113,92.65326137555466,-0.27297108526146663,137,76
82,96.01553879299824,0.2820121146414025,119,62
96,92.9655991220593,0.8025184155931266,122,82
91,97.14424164071242,-0.6721594759061102,136,63
92,97.59005282521932,-0.23718238019375315,96,61
60,91.02515964066474,-0.7182627920982774,117,73
78,95.13854464206767,0.249887540815664,138,64
61,95.08890555591056,0.45774101897719155,92,80
112,93.6928077021554,0.8638254651949118,132,61
103,99.32924862569672,-0.4422561474780702,95,74
85,98.27506319873221,0.9004224117308604,120,70
91,96.97209381909637,-0.8734746563586504,127,81
65,97.14326635734997,0.20602772672917635,104,69
91,94.61716143813119,-0.88573456131334,96,79
114,99.20994521096576,0.7875483755238897,132,89
63,96.94595427253286,0.0596181141401082,119,60
114,97.28981061655817,0.33869670152559217,116,78
70,98.61690903787346,0.6631478518209051,106,73
115,92.7407158934219,-0.6993787550320625,107,84
118,98.07070903866703,-0.9228168761237323,111,85
76,91.95240602956493,0.7577622918257043,115,82
97,93.45341952244888,-0.37013354508213503,116,88
83,93.35610454269843,-0.7420421841456695,129,81
64,99.78525468389141,-0.06307752582582693,113,73
111,98.56537223747927,0.19661215139203758,97,60
93,97.0116986159026,-0.9380587931549798,110,84
65,97.2705676161539,-0.45020868348582455,118,88
81,95.62072794402572,-0.934400251446208,132,68
70,99.47090667108519,-0.1593292216090021,110,76
107,94.96258752882362,0.7902000581324886,92,73
75,93.80517709869895,0.9653048229871384,120,72
92,91.63035336931591,0.27409510700725503,116,72
68,97.86205652261057,-0.6767246124308164,135,65
119,97.34443932075591,0.8116987799986115,116,66
118,93.84355038524134,0.032495646400120926,98,61
65,90.2519341395923,-0.6925013757941638,122,85
75,98.3899732771801,0.8434533389033227,122,67
88,90.11417983454074,0.514938101446206,115,83
62,97.0369977962905,0.4634105454463031,117,65
79,99.70257109726057,0.41836140758880935,133,84
119,94.37661328148204,-0.5993203578071153,132,62
118,92.34973404995952,-0.5779866165849479,120,77
95,97.04871010043382,0.37658599685451,90,77
78,98.17128142015585,-0.5605544997792062,109,81
85,95.46430316077847,-0.1226566063939023,101,82
62,99.67035275256146,0.5640036511878828,106,65
78,90.51668721657961,0.5679050361956819,104,70
79,95.04795598304528,-0.09347645494828072,123,62
91,97.1845394732255,0.5843798765504902,139,75
66,98.62640471149179,0.6772435923961135,105,64
111,91.7925561190779,0.3095515025685205,93,83
100,98.00003481763682,-0.5431482953831597,97,81
92,95.52707075718546,-0.45197643922890496,123,61
99,93.96553681989963,-0.3703176891825293,135,74
98,91.31715028579093,-0.766391784532096,114,75
77,98.65295758908913,-0.45368075926010976,104,66
99,91.57273208179716,-0.5809615513749358,117,75
60,93.09787859209099,-0.08934250038279568,98,83
70,92.90045531962437,0.8168750957445299,91,63
87,98.71414034190855,-0.7910393664920838,106,87
116,96.72702994208898,0.44053584789479117,99,75
84,97.96681397191372,0.37456600882625546,98,76
109,92.50467898792499,-0.8084916026732847,120,61
82,96.24874099606998,0.8451448098116001,91,75
90,95.71745983143748,0.1369444043136392,113,63
89,98.32830376788272,-0.2725489577286315,108,66
101,99.0608706048126,0.5130771669906133,106,77
94,90.12156771477387,-0.4852690831967319,132,65
66,96.74019919058793,0.3870196740926408,138,77
119,90.51835799119729,-0.9205775848555056,99,87
75,95.48858665077356,0.6788160752185439,139,66
85,92.87632729043678,-0.10365830595736303,117,61
107,93.06776599522141,0.27338582871588346,127,78
116,93.52958503452356,-0.5575243603866327,137,68
111,96.2129244904961,0.3541474253168959,117,88
119,93.3404996566877,0.5444805517865532,139,63
108,97.3269905059028,-0.05357362623120254,139,73
61,94.0452738557387,0.2354538481235886,90,64
60,90.68353200309959,-0.08734815235520288,92,84
107,97.83759842484108,0.788182738515691,104,66
71,92.85758324592706,-0.00426163897136167,99,67
64,94.32766879599262,0.6836174180576378,110,74
96,96.85443883221902,0.6027041165404972,126,86
91,93.32456157148712,-0.17899035730328694,104,78
118,90.56585656146716,-0.5398310162850499,112,86
114,93.73921047012814,-0.18783573488045802,103,70
68,99.44448582694304,0.6524347515504403,104,79
100,96.41734397298558,-0.5447349283612153,99,82
94,96.71479148667207,0.048872691715498684,98,63
78,96.3228215363764,0.612193495921495,133,77
107,91.98992138959437,-0.2930450497432424,128,73
75,94.1833386410228,0.2844192740053948,94,85
62,97.50939798363318,-0.508736851902371,114,65
79,91.01372897553159,-0.7814411092636802,131,84
83,92.77852776089712,0.5887684501857127,115,75
113,92.76319108465853,-0.8020627531825864,97,77
115,94.32018927594505,-0.4572372098408308,111,60
92,99.80368740942185,0.7102188439948802,114,67
83,90.67502546683822,-0.3070614258426656,137,60
111,95.18700994380595,0.9460906990283222,101,60
70,91.7936468201221,0.9594686695477195,98,78
108,99.70676545409744,-0.4634479590928866,99,80
67,91.13303504727465,-0.9180435555002191,137,88
95,94.03601002361592,0.41012656841075823,99,87
97,97.37884984834606,-0.09802699470331255,98,84
99,97.04554428027446,-0.7984943120808474,115,86
79,94.22728636893932,0.4150456379560856,124,69
94,93.46524167952718,-0.9376501817761576,116,77
107,93.9761237855287,0.7403933809844843,120,71
84,92.6427626315864,-0.7226949417733926,108,87
94,92.053329387068,-0.74537624250655,132,76
84,94.8303969755889,-0.648655404062831,127,60
88,92.68533756067607,0.9205327169841331,95,67
77,92.8746166489725,0.386338720507692,104,69
105,96.56756063474558,0.6027430709272734,118,85
77,99.68537331699892,-0.20473002853449396,136,69
61,96.03637200559375,-0.3273745449900889,134,77
113,90.76979467064966,-0.5310319864336601,94,88
94,90.75583613854067,-0.038703943375182126,103,68
75,99.51423220845567,0.103657467068337,91,84
100,92.97290790307333,0.26354968730551076,112,61
95,90.92066986082476,-0.48576299200261097,133,62
92,95.99044587150382,0.8973081618059813,135,61
63,96.23648778290266,-0.6604830035857283,108,65
92,96.48504820118688,0.9313063495328247,113,82
73,92.67402027857541,-0.9702877549849924,109,71
80,90.15110684214476,-0.037748616366308774,136,81
107,99.65015369454471,-0.3332643237668744,116,78
79,92.50893045691103,-0.10175317213949842,113,87
115,96.76026288052547,0.14132915796157808,106,74
67,97.0662986987871,-0.12882168397458194,114,78
66,96.10007417079485,-0.17030629939681008,135,71
62,93.12907394213649,0.4654468308266131,120,77
76,92.71096253764065,0.3717525501729293,117,75
92,95.97668282702703,0.6665425640716958,139,61
107,98.66095633611691,-0.5000820375210089,117,70
71,99.46733728923395,0.21905701950812717,111,71
118,91.05905804403757,0.1703895707857077,94,64
110,91.5482861259772,-0.2605243782546225,133,86
81,99.4473625878308,-0.027884916194638176,131,86
114,97.36535228334793,-0.37243571338854253,97,83
81,98.82993824829774,-0.7163112047660296,127,65
105,92.02632634135344,-0.5723975786745343,117,84
89,95.87585871109403,-0.7889727071975978,136,70
97,97.01139594417474,0.36613915038024825,101,80
97,96.80111885446972,0.32145478621830303,114,69
104,94.08151690866698,0.9012127431597456,127,63
110,90.15394891691308,0.4593568272944826,133,68
113,95.82926056804263,-0.8959083224877371,104,71
67,92.53101539179609,0.7684903478579084,133,69
86,94.5025424614289,0.7253503258914515,130,86
86,99.57581015083818,-0.11335935845460265,123,73
93,93.99035317642435,0.17172610105584307,134,64
80,98.39801606664426,0.9521566649450377,102,60
89,91.88540605749252,0.06460872769633252,97,64
92,96.72460498025029,0.8106436567521795,102,75
87,99.77006954438943,-0.8339224843796271,125,64
106,91.01893100872937,-0.6178962625826343,95,64
92,90.08319942227192,-0.11849011311736435,127,88
64,94.33582792632615,0.1695136166746094,121,77
119,90.92625483051367,0.6324557037256004,110,88
107,97.48384349676232,0.9765242302863737,133,65
78,99.1454866384856,-0.22229700705176714,133,80
63,94.34020972708758,-0.9051687277198301,138,77
94,92.58711642155441,0.6023430065906497,96,87
108,94.3440331900661,0.2087614381656162,115,69
76,97.23447817850001,-0.6029142822635967,104,74
103,90.09054161580372,-0.01034308675715967,138,89
87,95.89453989484697,0.48462049106744876,131,83
89,96.13291684887379,0.5408235741372875,112,81
88,96.37688246895935,-0.0007631760024759959,127,70
105,92.42022079980877,-0.38957093974228174,130,85
112,97.14052723378127,0.947485164076987,104,87
65,90.91391486331776,0.3267252219129857,137,86
94,91.992703364668,-0.1835249613074026,129,78
119,98.77470046654481,-0.43907355159069517,105,84
100,97.38723150726567,0.46220596600712427,121,72
96,90.13745554011345,-0.5156331088124646,126,86
83,92.483762603698,-0.6565800220526237,107,86
88,92.14406482993165,0.059667777924140575,109,89
108,92.70806328036973,-0.4200252147117163,135,79
105,92.47559770279886,0.2578102898472301,91,62
112,90.62526295742846,-0.764122650251533,112,75
90,94.5894051659682,0.30988220913464315,119,66
94,97.32733474786166,-0.43340694400459556,92,71
119,96.06731724717436,-0.9995141311309745,135,88
92,96.7287166859808,-0.7461278846516473,128,74
111,90.81149178536239,0.8672307556701881,136,89
80,99.51490710176788,0.7347092782307156,138,67
91,98.38491833843025,-0.5327819359275263,90,82
82,98.05090318495662,0.5567438090909824,130,76
92,98.22983805041767,0.2171431863479485,111,60
62,99.32710508132762,0.9418094228997389,118,88
77,95.44253966113698,-0.2527886809318818,103,80
84,92.00282017867626,0.36292122503434254,137,89
101,96.16783607852541,-0.8729285551521628,117,67
90,97.42881493667939,-0.2075053063671881,110,73
113,97.37917393354026,0.9276353223763609,134,69
117,95.2144902416688,0.0779617489002411,121,86
62,90.68458719333579,-0.42424099333031084,95,78
99,93.71112938430127,-0.7594580737427863,90,67
105,99.20766608463357,0.40705668036306086,110,78
83,95.84448909757425,0.2897120868594536,93,63
109,95.38331943255713,-0.25212257279245076,92,69
91,92.68853514382194,0.9018827037316686,138,82
106,93.6844891991658,-0.9555943740242994,119,62
81,98.95346089153169,-0.3925522967363484,120,63
82,96.66463047526835,0.8421389725991628,123,75
61,97.87387026752333,-0.35812912336111924,108,83
86,94.54345423067655,-0.4954943322896592,109,63
101,96.30247219456157,0.06844081986249462,112,84
61,92.48383608743208,0.6476034998410758,129,79
85,97.05460830283486,-0.7937064782432779,114,88
76,94.27601333703338,0.8860414192914723,104,89
99,94.42545514814745,0.5901457623623281,127,79
92,96.49322324576882,-0.6374994888968961,112,72
68,99.36280621468927,0.42401592239632535,91,80
102,90.6400634660862,-0.2300825547248857,104,76
113,98.24743237347008,-0.19541064384736262,133,82
107,92.92383110412193,0.5665801848777328,124,84
98,94.43919454506377,0.9255696159614644,99,75
88,90.21913328775008,-0.7466882543056121,103,87
101,93.01046077834313,-0.1587395262423612,116,84
114,95.0263124263013,-0.03811678383139294,103,76
85,90.56176077347439,-0.2473763660900048,124,65
94,94.91095729383166,-0.27362175256754995,122,62
109,99.27110628858428,-0.8954626648768069,90,79
84,91.05393218107805,0.37107724112524654,123,83
83,97.64440728075505,-0.12757116575990923,108,63
72,94.09671053375993,-0.6104123947121465,113,67
119,96.55173714524338,0.6320670046041368,131,79
117,92.6023659798523,0.6051214963032558,93,68
66,91.59492262541359,-0.027216743822212397,125,81
116,91.60462614271226,-0.40309867770447894,102,60
95,90.70491945643144,0.27618545159290475,121,72
104,91.85646704901244,-0.4236957284451939,98,85
79,96.64219384988968,-0.5279841393525759,128,61
60,98.81690611843509,0.4610293080526533,105,82
67,98.14125685591162,-0.9193495205580986,139,69
105,96.85134309874483,-0.8104630579308121,92,82
75,91.10431863411102,-0.9864236519528204,109,78
73,92.89187446295949,-0.6941136270491477,99,76
71,93.0980687532247,-0.8620199825790811,111,83
110,92.49956946397621,0.9916047355598372,137,72
82,95.15005659709723,-0.42238006009182083,92,88
74,95.35553814879673,-0.7014639746615055,100,85
87,93.5688597517111,-0.5180074840081641,114,73
93,93.53789158736436,0.8722511430802693,131,86
61,98.28555597906082,0.04032044604879137,137,70
91,97.89292848319685,-0.2703638073842862,97,69
82,93.07795831680745,0.7467829158184387,98,66
81,99.1378844387326,-0.21001945890193507,104,69
110,99.52815017002506,-0.3299828600846084,121,83
84,93.26742542030041,-0.5854349549005289,92,60
117,93.54424948793054,-0.244406352181177,93,73
81,95.05634153421958,-0.36663128796614797,119,62
117,99.41120812533674,0.35460791859628205,102,72
117,98.76319433142311,-0.4208345906585458,133,61
81,91.02567962583589,0.1543994928451229,110,76
108,93.92730743271416,-0.8682156699360546,130,80
111,95.53371189749772,-0.6174216866069713,135,62
101,95.0313247255154,-0.18518945677730247,108,85
65,91.93863067936893,0.8738985078173909,128,74
74,98.58816771168155,-0.2454960285686092,137,67
113,96.76940782996837,0.3281482423996682,111,65
102,98.37908374851804,-0.4898255551572037,109,85
119,98.58764279349472,-0.7459328480535365,126,89
96,97.4835585366574,-0.8829267998398997,120,68
92,94.39210601249718,-0.3891730029144973,99,84
67,96.10546755015424,-0.6846779464061841,107,70
112,91.60365406119743,-0.6519791039677516,132,81
119,96.73645417474907,0.5215186167739001,128,61
103,91.7925325573928,-0.9683238581102516,135,68
103,96.93949590510157,0.11562025147086885,109,77
64,92.29598160753969,-0.24107723881307042,107,78
98,91.1755130015022,0.013099999817094421,100,81
63,91.65284490142957,0.1256604744292058,111,77
65,90.0199213521907,-0.3732646110854436,133,64
104,97.18739617853531,-0.40978227963142944,107,77
91,97.32401049058379,0.4668036986698114,123,71
111,95.1493334991326,0.7425539762423143,112,63
89,91.61362801055384,-0.6148367350829442,90,74
106,90.8355433751069,-0.8047624789297021,99,70
94,90.19128966437287,0.7955916127840519,90,86
114,91.65748176965221,-0.3002090727052027,127,78
99,98.90855534983146,0.10263478132562831,128,64
111,92.41536841701682,-0.28091371095999307,138,65
75,93.54271327217215,-0.7483953273078974,98,72
72,91.05345484481333,0.1786632898954561,120,82
109,92.2236130474817,0.050281703539259315,96,69
119,95.19224570780204,-0.5940128816176056,106,83
101,96.07752683095653,-0.09626191069544432,124,84
89,92.45352314166212,0.5938950080312917,137,73
78,90.57732159225117,0.18085220621578268,126,63
76,93.91032869127399,-0.8061653458660103,107,79
115,92.34203370926335,0.09604299445827014,122,82
78,92.19553923229802,0.40547659857917373,93,71
87,99.59862802713455,0.5854068115615028,112,74
117,96.16300485925724,0.2582351572685335,100,85
114,95.56878443172096,-0.6946836709184325,98,69
85,94.15775103523322,0.42034653318032134,119,70
96,94.28944333430144,0.35468369216303275,97,68
85,95.40905003838081,-0.9511462341187336,129,70
112,96.96429807036107,-0.17650466481951366,94,61
82,97.02146096181829,-0.3340995060752534,101,72
68,91.71693907705449,0.3388241285072868,90,86
71,95.00112752076627,-0.5677283753781586,104,81
112,94.11958095034102,0.181743845948517,114,85
60,98.70526966269384,0.8264119236283447,107,85
117,96.31418921218376,0.5956047444172154,127,67
117,95.32504066415981,0.8429154724330608,131,88
60,91.15394642178917,0.95701193386538,135,80
106,96.05637889323411,-0.9786597459876745,115,80
93,91.17203905680233,0.24548255275495512,129,67
91,93.37206575565752,-0.17432120448218713,92,60
113,91.42841964814332,0.7197089806702435,111,65
107,96.9207364702437,-0.4963705959817366,115,85
84,92.06252113836153,0.9620589782301523,108,72
99,93.91859373188026,0.22741593908749458,133,68
104,98.95674777618778,0.5870748044576619,133,87
112,92.04316383398971,-0.8288008943544634,136,65
60,95.07805063958779,-0.6330842304822699,128,74
75,94.19271661166022,0.5168073460684064,125,82
98,90.18124041045729,-0.9560269559213528,110,75
64,97.92758113572813,0.6337559717875656,130,63
81,90.690459063146,-0.9721019626161771,137,87
88,94.74255020976953,0.31423767812254666,115,85
114,95.6067829493895,-0.26981215953638826,102,76
62,96.28426456614586,0.22298970543839824,125,68
71,96.88631629307875,0.3920628139782274,113,71
85,92.53272383522715,-0.3150495616273916,130,81
75,90.0997877665845,-0.7840751037783289,115,78
110,97.23443662354912,-0.8607082645034687,110,79
96,95.35656599347578,0.1778720451250957,107,85
81,98.36117703207249,0.041310707468223073,104,71
116,98.21388362900694,0.48440201824226503,104,81
88,98.43326167787883,0.019471020007874262,95,65
73,94.8509465997954,-0.15510841993824176,132,71
87,93.33628395836865,-0.2038256435275383,120,68
64,97.9155820259137,-0.9471061948046651,117,79
106,94.51294113029255,-0.3288855966066857,97,64
108,91.83442196403435,0.9520403150489885,118,80
89,98.54974019561475,0.7471111524541776,110,62
105,98.82559876772348,-0.34124386593156464,106,61
111,94.6630975614017,0.17559081013274436,138,67
64,90.75699727309788,0.6945934910709879,113,69
71,93.8782608991693,-0.11745132649986267,139,74
75,98.03537659462603,-0.9640842724996981,125,68
85,99.01774028546228,-0.8509790763627199,120,69
85,92.03472742497596,0.020785442697413226,136,70
107,90.66973612025272,0.9388787513517567,123,88
80,98.77350453132838,0.38641908443773554,91,68
98,93.89404938978875,-0.8581676171228609,131,73
95,95.41760964267563,-0.6212782484162744,92,64
92,99.68065812050759,0.5426462864337,119,86
89,90.66564727914223,0.6828795199124895,97,68
96,96.48318007452096,0.2353891723771817,96,63
82,90.74105422574867,0.2888463392596332,101,61
117,93.754689284665,-0.9433250992332307,108,78
69,98.03814545193447,0.657060519163017,115,60
113,94.33472232755635,0.5765504163416593,117,80
64,99.9718235390295,-0.4819297117933057,104,60
95,95.59059284946602,0.4173534399310139,103,71
93,93.21162152635954,-0.5702907871500038,137,70
111,92.20111325904753,-0.919339677896974,103,60
90,93.50520534286161,-0.5977269148192454,92,73
69,93.72533273759551,-0.642742246491401,139,86
117,90.68713677723962,-0.32450400653030553,118,70
78,93.69574199426773,-0.1631010056490838,95,88
117,94.64238519739224,0.017077782995415847,138,66
91,97.22737752238805,-0.0464922489833437,112,61
60,96.56729484721608,-0.4586507880694213,117,74
115,97.08765655229155,-0.9416586628518511,103,67
64,90.08363681876857,0.2102032444743014,103,81
104,92.17667399580536,-0.20851034030529125,109,79
63,96.61684288399857,-0.4026556852249006,102,84
75,94.83989368179748,0.7338820856610246,116,74
83,90.05313475668346,0.49348661559631957,124,85
75,98.04494642431823,0.7155310967448845,134,67
114,97.72809573290337,-0.010034410575078034,91,88
61,95.48419162993562,-0.738137495746445,130,69
108,90.66463325776272,0.3924428722425448,134,78
87,97.66515049532585,-0.5878524401256495,129,62
91,95.83713587731364,-0.11754066181656642,137,79
86,97.81959977157959,-0.869998422102223,113,73
79,97.5174699239584,0.6506168048459648,118,68
83,98.03002071957837,-0.7481187179049988,92,68
71,95.18008066404624,0.8061950140986194,134,80
109,91.40324518193515,0.7284612045231142,93,87
94,96.71157473379688,-0.07083447112150787,139,84
119,96.2047378505197,0.4887364086079813,91,65
92,97.42253187199087,0.23889014763630656,109,67
92,91.69881006050736,0.6061512846754897,104,70
110,91.9497519990029,-0.1363897984281759,138,67
102,98.90409517219328,0.5716169684887,121,71
96,97.4997779845207,-0.07508636586970407,131,69
71,99.08228488700323,0.8819315756855877,90,82
62,97.5871532116392,-0.02725579834970482,127,63
60,95.97155305990302,-0.07476145613254093,124,75
92,96.54132737027874,0.5701437231270254,96,79
99,98.89127923940009,0.6431553835216759,134,65
69,95.7880675451194,0.10897822864234152,102,89
102,96.32391324328387,-0.6404043730098492,138,68
103,91.56476716003601,-0.06448353808484097,90,82
88,94.73921220116102,0.9361450058193568,103,64
72,97.16397111958099,0.5059723860783703,118,80
71,92.70942698316365,0.6223252077582644,92,83
90,92.02254180524535,-0.9343490023615197,135,65
105,93.13826808224415,-0.06428107473168021,113,76
61,92.41500627992833,0.2932422673151107,90,76
110,92.14912637036396,0.6600653672561494,137,84
109,94.24850842868086,-0.9014526928344571,99,83
94,99.07838513883534,0.7048777712837462,102,81
82,95.07059646738719,0.09680187348382341,125,72
76,91.87920380815324,-0.6053720588478801,98,76
85,90.76971669380875,-0.3654895671006,103,73
67,96.96156145137925,-0.4361408964968785,125,61
88,93.82798764436387,0.06171806857695161,99,85
85,98.2183094658536,-0.8966286401777364,129,78
69,96.5951076864077,-0.6829276830001529,112,85
85,97.96241450541369,0.6253860867515648,124,87
93,92.7194603941845,-0.7347920185063779,96,62
110,96.92358922461058,-0.5332074610837461,131,61
100,92.64061984693718,-0.09325878879168537,124,87
66,99.39068479450292,0.034241776226660914,91,61
63,96.36374281533375,0.5272209592283172,104,81
117,93.24511800175343,-0.10533514666762445,98,66
112,92.69511862292272,0.5797292420710776,136,63
109,91.90926585071644,0.2366926140909149,106,76
104,96.94640958893727,-0.7738005211523551,128,65
70,92.18715612997927,-0.6873371232143228,107,66
88,95.9530326592749,-0.12593254910045837,104,79
115,92.64635026925357,-0.20622121382192082,107,65
95,96.61968944793868,0.48708853927458917,113,68
84,98.1493972854054,0.16147427959470373,112,79
80,97.78025243144653,-0.2237338379955014,101,87
116,97.60851330930782,-0.6584794330992287,112,89
95,91.87722405692251,-0.5463257953490097,110,85
69,90.88384946984519,0.15100203693811798,115,63
96,96.98948828487386,-0.15312239020041507,97,85
68,93.68347213794351,0.029855017721344135,119,87
83,94.32346226403348,-0.6586451293955327,123,64
94,90.31149092793392,0.3258125046891316,91,78
108,92.59576449275049,0.7050774817119341,94,69
94,90.33676403874465,-0.48412098642619883,120,77
107,98.79185772601248,-0.016971548336346842,122,74
95,92.4339668321853,0.9510546580418036,93,84
77,95.57337169573007,-0.3335165188985447,95,88
108,90.3897932066113,0.19009268984752237,112,60
98,96.66847391305657,-0.8196085995995113,134,64
91,93.23027345754093,0.21203000495888635,108,64
83,98.97919186957665,-0.8207364533907642,132,67
82,98.88118188934035,0.9184708706476441,134,81
91,93.25290618361748,0.4313253041446228,97,81
96,99.00960895690469,0.5763195762714128,128,81
71,99.96157673498779,0.4082087215432737,102,79
108,98.25415664123948,0.17945807215293152,90,74
114,98.44871347755229,-0.10017443782898927,95,76
72,92.4900873610909,0.7167467595221249,96,78
82,95.76702398857756,0.9136713350861261,137,88
84,90.67255913967368,-0.0019276541918373802,116,72
94,90.9491793682167,0.863070098310524,104,85
100,99.9889261203329,0.166665819977035,123,87
89,93.26639249425911,0.07676837379286638,112,86
76,97.48183912048846,-0.09103453408928663,137,81
108,98.06665053026816,-0.5814244769397603,138,80
79,98.5802327100723,-0.9925606783638816,113,69
107,99.97628297402156,-0.5169875462878775,104,76
84,92.41496485256867,0.019446343207130345,124,64
81,90.403508268597,-0.24008009548049491,93,77
72,94.11191517994585,-0.10302954399473241,133,76
118,91.30080669828946,0.9612964391280991,126,63
78,90.22425889162055,-0.2994552586613448,106,81
108,93.60426827141487,-0.09563412127978421,120,66
95,97.83738251075236,-0.7329688972943609,127,84
71,95.66180691225071,-0.9040845351260247,99,64
100,93.12777989210355,0.5508190291849893,139,67
78,96.5434200549272,0.14136635014395726,116,67
71,92.3201818030881,0.52140961208779,131,70
68,90.14381446072085,-0.7002744022268967,95,68
66,97.64353386436427,0.14365754236538186,95,78
87,96.23743084864009,-0.4927150513172489,104,78
73,97.6230262450096,-0.5438763661999602,93,68
90,90.38938016687666,-0.9769479718940295,137,82
111,98.37119627830653,-0.7393185528618562,129,79
78,96.19526200036303,-0.3814637770006093,96,76
117,95.6339535071264,-0.7662424788181219,138,75
106,96.24614048114532,0.971716880821875,134,66
75,98.64433246868364,-0.38273470295209866,136,85
112,95.86936506558907,-0.7393521065953437,115,81
64,95.80950379888179,-0.6018353743440845,120,62
94,99.90679157065766,0.17540645668295296,91,89
71,97.56730167068568,-0.871912952270423,117,80
84,94.42293805451135,0.7248682602823138,131,78
111,97.07397000032928,0.9229993584742946,102,67
118,93.89230471691789,-0.5065051586652383,107,64
80,92.288754624835,-0.09980946281828129,119,85
95,95.9685187688776,-0.9557310979410059,100,85
112,99.28182098113952,0.281420449454443,102,65
82,99.29139520015462,-0.17214788389482227,113,61
75,93.4190527810549,-0.4598830677968886,118,83
116,95.27677466221695,-0.586325778766783,94,84
98,92.11635898569861,0.3080461553175209,124,78
104,99.95631109498883,-0.1675659379353711,108,72
112,99.81117907867936,-0.640681421940176,102,65
101,96.49508929707447,0.3782181629736481,94,65
117,98.04414059677474,0.1301445660733873,133,61
98,97.151001612837,0.7173441098589923,103,85
73,95.93158219039468,-0.7650482022470142,127,83
90,90.53347996988897,0.5713332038889123,111,64
117,94.54764342552662,0.34703357363451803,98,70
64,96.7478630216741,-0.7699781263438044,138,70
94,96.77531613883684,0.38964145974344144,129,83
82,93.73122618422383,-0.11690542224033917,115,73
88,99.4169198665803,0.8899695711116862,134,72
102,91.67357032236781,-0.7167772987642014,94,89
70,95.0035944621556,0.28566678163147596,118,67
77,96.90883976550823,-0.2360399090741081,111,74
106,96.9713580589181,0.9136293411817555,138,71
71,96.48638956768815,-0.3400502094194471,92,62
68,92.7528821345186,0.9243718189836003,117,80
69,91.56206568686622,0.8029717022014982,127,82
117,96.3594032682671,-0.45923352937868733,103,64
103,95.99302116139438,0.6070835536528554,136,65
76,91.79356010289241,0.9912084036070119,103,61
97,97.05139145570564,-0.4946739956574353,132,67
66,94.55171991733657,-0.12644566135336066,100,64
105,96.67760591603152,0.04036147313351934,98,81
72,98.37367079770151,-0.41013772839227136,127,76
99,91.69728428576923,-0.9694703207079405,136,85
101,90.19144867996836,-0.5597415116049467,133,61
68,97.79102586395787,-0.4361262313164831,95,70
109,96.09697425152616,-0.11280059736362569,90,63
86,96.99639569622121,-0.6577950431731963,114,70
117,98.38154974988643,0.7465087133833452,105,68
61,98.02810934824501,0.4098222654626722,104,65
64,99.60920146928825,-0.829599044880676,123,83
88,95.35935078852118,0.30018490227986283,106,61
96,94.88495632659905,0.3073129528112408,92,85
97,94.0188719989073,0.9124423472872554,92,74
78,91.53691042844204,-0.9939582572876775,126,64
67,95.72607232882022,-0.5041351003883856,106,87
107,92.77012524325978,0.855582958750631,138,71
104,99.21307512212975,0.8642678307965661,127,72
60,95.83190804277098,0.4411728387412748,90,76
81,95.92840180508111,0.5315266420950799,96,63
111,93.5492466087701,-0.8170340841407058,115,69
76,90.51989351977707,0.02775166955646724,136,60
66,90.31743765372988,-0.5368340174220012,128,70
84,94.23335144153198,-0.6375639127727655,108,75
104,90.84565378097238,0.6206065982466651,119,70
63,96.06846955540139,-0.7299237266389051,132,68
95,98.80973005639657,-0.06269672600722953,103,61
65,98.82914816518722,0.8771564791720661,102,66
119,96.59045410132232,-0.6283358888693149,109,78
90,92.11231831472931,0.9559868474764692,115,89
78,98.62996831358872,0.9885759715221181,116,77
103,98.86093435313208,0.11123430936480583,114,88
113,91.96653584952959,-0.6597145196456842,98,79
98,97.37426085770677,-0.3677902241182087,130,66
86,92.86519548927123,-0.1510143346469297,137,82
69,98.02640312352929,-0.38135155128355414,101,68
85,99.97237899903602,-0.43872884024696845,99,71
78,90.30026005329393,0.9444594184327151,95,88
98,98.97365865790931,-0.6932703451685087,139,62
62,96.22630533598658,0.46665581743372453,123,82
104,99.7338261916482,-0.9991794211216503,130,81
72,94.65009517526428,0.1923653388047537,108,85
109,98.47387930571374,0.8318860079081047,95,75
87,90.62394068598277,-0.42413181181356197,91,66
117,93.35279050078296,-0.6289480494845616,104,82
79,90.6701653775121,0.30335958975685395,106,85
87,99.7534313347907,0.4252028145967863,105,64
67,98.16973907271837,0.3760610379039626,117,84
100,98.5254742124597,-0.3613662399572519,110,82
98,99.37965231433894,-0.49559519568133825,97,66
60,90.85103486119786,0.9118375999240884,99,87
62,93.85597592513334,0.8465990165398589,99,89
72,90.71034889044002,-0.0853667802143594,139,78
87,92.10793101550028,0.6923877323087468,99,76
116,92.29365777037673,-0.09535304473140793,98,75
119,94.69107211047579,-0.1512219638549792,117,89
108,92.68562167453642,-0.6864741048014107,113,89
84,91.00978106817762,-0.14718788701605434,108,80
115,91.67491089094108,0.07483387719961399,122,83
92,91.47275563552091,-0.9549913451426271,93,80
97,99.73076797912299,-0.11177398964918717,92,85
112,97.59292506918473,0.5627124367904006,131,78
65,99.67761465269562,0.3600921127485397,101,84
117,94.39740486507908,0.27031397772787,107,77
103,92.78368481662656,0.819110856874405,112,78
104,97.98293197209186,-0.96393598034954,109,87
91,93.26253918041147,0.11409517238446831,95,63
104,92.99383373705348,0.5746976968194142,123,85
106,92.32505992207831,0.08267076540253449,131,60
80,91.29678978224236,-0.35220889483924167,91,86
75,92.56463061016765,-0.7274988698160443,119,63
113,93.55319748473887,0.7751261436323826,98,63
80,96.7399420814573,-0.05847521522479404,116,68
70,90.62564842219452,0.7562303939714028,131,67
119,92.10506939665343,0.17170424486633662,123,61
96,98.09023640291676,0.34838423323000156,129,88
95,91.46921923583771,0.6085223087569,113,82
94,93.42645146522521,0.31831108920026874,138,65
78,98.6465892185814,-0.2038903186421246,106,82
79,91.54925311143442,0.027266767857301977,118,70
116,90.82736835618189,0.6060910493517597,125,63
77,94.84537995080011,-0.2526994072540316,139,89
106,93.02419511278536,-0.22375708646300585,101,73
100,95.63408364483854,-0.8086197678839977,120,80
108,98.03804890483475,0.8291688704434954,138,81
73,91.37148488152744,-0.8179273701091165,98,68
74,95.80699084554286,0.29641835489711177,108,61
90,95.05508760389864,-0.1736110423944046,135,86
60,91.44078786013199,-0.18876121948911528,135,84
112,96.23998485528982,0.35910367314536784,106,85
113,92.73640417860771,-0.8658125347402426,91,60
113,94.87834318544013,0.18741156590286923,129,63
62,90.82272324277062,0.5440635719447096,94,71
75,94.59584057213623,0.6564255157731884,128,64
82,93.0646346804282,-0.6589392212124494,137,68
116,98.22381211185355,0.7948381001563474,105,81
70,90.56978726997369,0.31229218369488443,106,63
71,94.1860727491833,0.7637096016413656,116,75
69,94.58431424131437,-0.029438565779603465,96,61
91,97.25006076299118,0.08406669019440405,97,75
75,95.74287575090212,0.8380765540573423,97,75
67,96.67212337194181,0.7998190867093435,112,80
97,97.77049285651756,-0.10367825326199598,121,83
71,98.6220297365819,-0.4511747367286365,132,83
83,93.1387549672247,-0.2136591308714717,136,81
87,95.38022705363903,-0.22447134294050053,107,70
112,98.401080784392,-0.4262662500344121,127,60
67,99.89451130965057,-0.46284079133406686,101,74
117,98.89519311043763,0.7221258729594389,104,83
87,93.71467262624377,-0.8602761586306766,117,63
95,91.95166517218651,0.3552223641991883,127,89
85,94.89392537406589,-0.6543598970870954,139,77
67,97.41641451836043,-0.31098821321187353,120,76
117,94.92569070753298,-0.8769139317303263,98,66
119,94.83180863313669,-0.4600527262890759,97,77
109,98.382304210818,0.5368421422344842,135,72
87,93.61403779067186,0.7700306490945172,108,79
87,98.59794674811646,-0.5569456961952659,97,79
96,94.06804800951724,-0.07290432148215631,123,88
100,93.28233105678339,-0.05935190412558722,93,69
95,94.53989911199699,0.7471506115194684,120,60
86,97.62446958674869,0.5255981057516108,127,61
113,91.26002027863994,0.02615443673609974,92,76
76,91.96419215872018,0.34149440094354677,124,81
68,99.51444825663091,0.6947101078187337,108,88
92,91.75491627381358,-0.9809220919489101,132,62
112,95.67727317931055,-0.19421993789990277,118,76
79,95.79314466661938,0.8144863345541573,99,71
72,94.89624462050244,0.4806260616879028,101,83
87,96.44745248576818,0.08568274866814929,135,89
107,92.29826725797618,0.059289054070266856,119,71
88,95.52662267776748,-0.30445980479112444,119,89
72,93.72173255246898,0.04104106728302903,107,79
105,96.61667259629189,0.3107663989269065,113,69
94,91.4122354337315,-0.16327392314241385,121,66
65,95.70877416839477,0.42830629278434795,98,69
77,91.85270355383324,0.7224644545207717,136,77
110,92.78643063115037,-0.6906303036302777,113,81
64,92.18709800323583,-0.09690595436515115,115,65
106,91.82837779868817,-0.1839598174298378,92,66
84,98.25710951560667,0.3749296080994562,112,87
61,92.8570756766089,-0.5002650694841413,100,76
69,99.2712378186445,0.2805018299045525,99,89
115,99.69926525345191,0.754978483462976,139,71
89,95.71260469937097,-0.16373680041275462,125,76
109,91.43001122665726,0.8220313999584401,102,77
118,93.74548243379581,0.9863274778669568,118,73
104,97.97732263348215,-0.7878159001040959,127,70
64,93.6739072869707,-0.5338936240302827,102,61
114,90.87017218302789,0.9007595029641864,115,80
115,95.56784910928188,0.9166553729627736,109,60
92,98.45120851496034,-0.804585449226483,94,70
113,97.95926387143503,-0.9700029992457266,109,61
60,91.75123140130353,-0.6777999534871555,103,75
77,96.72764614412466,0.9920255667644966,134,81
91,92.20504263435647,-0.6400007667786263,103,62
106,92.18207534552172,0.005095213444046287,97,79
108,98.74071773305185,0.6968354528610221,137,60
70,92.4966895274023,-0.9591967786235873,102,80
80,92.63247346518011,0.20897796451691897,113,79
85,90.00653390761299,-0.44594910226075135,104,67
84,98.70669034125518,0.7246698328794632,90,78
81,97.92594813209135,-0.43307770147184166,111,85
118,96.27328935090678,0.3735114405638178,123,60
86,97.50265763938842,0.3484392648947938,139,89
108,91.52048567424492,-0.55701290228072,129,88
72,94.58323594587576,-0.9304016002632998,92,85
92,93.5121938734878,-0.18150085242920544,115,64
93,90.93776526257017,-0.4216136960682606,103,89
100,94.86130485214925,0.6179554992274172,130,60
94,99.20739650342635,0.6007283769106906,97,70
60,90.40059119050694,-0.08595209561474904,138,80
80,92.91460913493793,0.21302445064643782,105,68
107,92.07540936205703,0.20851903197385036,131,64
114,92.38146653665696,0.6543162968552467,110,61
65,99.08434551879375,-0.149995171753605,99,72
87,94.6806905423429,-0.44910664041898185,114,77
76,94.66299412939819,-0.46993016371890506,127,85
64,97.60575642455282,0.07238455856440829,111,84
90,91.54492204004926,-0.10170359453557487,138,71
64,94.8726535410005,-0.11975845803012763,137,73
97,94.2998521412106,-0.8177253218205855,136,64
62,95.96910690546656,0.4372074813803912,135,86
112,99.99557703250439,-0.5725266240361786,93,83
82,97.69448894082048,-0.6060927395825573,93,69
96,93.97865703017428,-0.1744833594452131,119,79
112,98.27553052274047,-0.5444433167643972,91,61
96,91.7070836331248,0.16771653461603075,118,63
69,90.3046368630896,-0.257073321331057,132,71
69,92.04448372464273,-0.10217655481441978,125,70
78,93.40411556114259,0.07433864320805772,110,63
76,95.1058075745956,-0.5929289550363903,110,70
80,96.151291405412,-0.6884967542689404,137,68
73,99.10605717214422,0.7608438057472096,110,69
68,95.09854009550457,-0.13255259433715794,93,86
105,95.0127564462573,-0.17581278073492168,90,65
60,90.50243009822982,-0.928775699454317,115,74
110,90.34911552656224,-0.004047394825213546,91,69
104,95.51159961916372,0.10833944322200018,98,81
72,94.38178613248344,0.117681741909333,134,80
63,98.39180394980299,0.4140623386457687,107,65
60,91.60679584711845,-0.6450363300179764,137,60
108,90.24971662117049,-0.49555373153876237,137,88
99,94.49038767930126,0.6214609304608254,131,80
91,92.37478556752258,0.894341233686788,130,87
93,90.49614373338838,-0.7281345052653587,100,81
87,97.24598286847629,-0.004700890989563611,114,83
90,91.11592999957247,-0.5716474945208263,115,79
67,96.08319500007772,-0.8798536632900351,125,89
98,92.81049750166889,-0.3489933237477292,131,80
85,91.73496050355023,-0.7126247496315745,124,63
117,93.79751522919318,0.41986614686849255,127,82
93,98.01445776222954,0.06745082734288887,92,85
113,93.92093576904573,-0.7123310580193782,130,81
113,97.50769649211055,-0.9815168231889713,124,73
62,91.25486296799151,0.6163140980484254,139,79
118,97.7277141966508,-0.6476111876715049,129,81
109,92.36933324906649,0.21243328444153198,111,88
71,96.77393129888873,-0.32615617384650886,97,79
60,95.65781554840996,0.17097187663007118,104,87
113,99.29144717211688,-0.36869274603535196,134,67
103,93.87322517975313,-0.8261208786154917,96,70
64,90.66165188834441,-0.5540999828844928,108,74
89,90.19155485551254,-0.6238828670418488,129,78
89,98.26858560972752,-0.14396129512071232,131,67
118,95.24735637661432,0.3165675668523147,106,72
116,97.75244051834949,-0.4723878501072849,90,77
76,92.34425600011515,-0.9758601293987641,134,81
107,93.45083745513233,0.03787472852951379,118,83
106,90.30103872211319,0.21151897871794412,102,76
82,99.61492324574112,0.9257409880036194,137,65
74,96.67867906700813,0.17894160618649368,118,84
96,99.33205087759306,-0.057654881243716316,130,74
80,92.65496407429072,0.14680325179540765,131,72
73,96.1146361122566,0.8558012597240541,95,85
61,96.78499968292638,0.6567562912032925,94,85
70,93.17549700257588,-0.354042533272384,123,77
110,98.4810923501563,-0.5254912726857255,100,70
98,99.47161462900247,-0.47473277526785274,98,72
97,98.84855117696004,0.00884207943042603,127,60
119,97.39066975939373,0.4880989024571556,129,77
93,92.77464679724955,0.006438414365924183,130,64
97,92.81616042105632,-0.8644072083437748,98,65
109,99.63360320446037,0.4471614008799618,97,60
93,90.10284495935691,0.6119402573419077,133,66
77,97.16049973242144,-0.4210042697605607,129,86
89,97.06246162555263,0.3282514785667008,92,63
74,96.22689540949797,-0.14681619789121325,102,68
86,99.90108846086866,0.7782387114548857,108,74
110,93.11879435763726,0.6904511163214797,123,65
93,93.39971863793248,0.050863996619284535,121,84
111,90.78939402946556,0.38301109162718894,138,76
116,94.42798136543738,0.766699402044208,105,79
97,92.61048526234848,-0.008565979843448979,125,77
92,93.43386702177644,-0.3734985190223561,107,81
83,98.34571790255627,0.5073322758191625,103,63
74,99.35484513527496,-0.5598674904306165,119,68
119,91.85733072005186,-0.2229377039879159,91,73
89,93.72508931553466,0.7314544742135873,102,62
114,99.28630562115394,0.44884468053863014,116,60
101,90.61808460689222,-0.1923779895050015,106,86
110,90.92360528111378,-0.5705109951832852,120,88
76,91.62790989206229,-0.28806321833552695,104,70
64,95.95212834126875,-0.431791701545134,109,60
88,91.50472271005998,-0.6478214241122922,94,71
63,99.68076381450733,0.48666582713131334,96,84
69,94.4671452725852,-0.495860226299657,107,68
115,95.01517960350166,-0.09166505966447236,100,64
76,92.46658615805407,-0.22828110632778187,121,74
69,94.70960252434733,0.9641547572712617,139,77
76,96.61913632637011,-0.21781551170355895,116,68
119,97.51177136954043,-0.8400350344064904,115,72
79,97.53868082709913,-0.820348494855832,126,87
83,95.77891112694088,0.18150744270612962,134,72
64,99.04359774993857,0.19872710347653122,117,83
93,98.17407847306109,-0.16248201903469006,139,72
65,97.57048114698625,-0.13631261537594064,91,86
112,90.55605521680461,-0.8921348343182576,109,69
61,90.06877962219649,0.033093020778524496,93,69
72,92.12447277195473,0.009478950760703375,102,81
102,96.63523593913452,-0.7009013628861109,113,66
102,94.11197488882546,-0.7923212277781448,137,87
107,94.02406259299312,-0.752855018801019,127,81
70,98.84586888229614,-0.797943507017483,129,64
110,98.95562848131839,0.21941639107351962,137,79
106,99.09175264053586,-0.6070346951941628,134,66
116,93.13878076515027,-0.4971396956250731,118,79
82,96.91055812739262,-0.6528557116971205,125,69
114,92.7163318127437,0.9156706088970061,91,69
75,91.9060983307445,0.7092349263036708,130,85
90,91.8463245734737,-0.5390103252969582,107,84
70,93.42107620863594,-0.344867412155748,138,80
113,94.29957619779822,-0.5802143153900057,97,83
75,98.30949171055069,-0.016248081078352516,104,87
67,91.19891093472712,-0.9607789350514928,130,72
63,97.34925847394894,0.3427360177935914,106,74
99,95.31454914189305,0.046316299635283276,112,87
63,92.87945342675992,0.7972778566022065,91,87
115,94.92819584532825,-0.6712146313431717,95,65
84,92.99942069777023,0.6082184921222633,118,79
62,95.96081955238306,0.5839220289334315,116,71
91,94.33843922855245,-0.7456376215662261,126,78
62,91.64405529078878,-0.20288155171174482,138,70
86,91.16583074555697,-0.6596947177109662,123,65
88,95.46695682072131,-0.4905589990849022,107,60
91,99.02413033286103,-0.4735076503389113,131,61
109,93.43957686557685,0.11247278805154548,99,82
117,97.33000107222624,-0.177178136479069,127,74
110,96.58661354939767,0.8954656080126107,133,63
78,99.31554914309481,-0.7472597161059897,106,64
80,98.20981017299141,0.9473842697003976,102,74
64,95.66605258905463,-0.5387227195714721,137,70
77,96.57030498234107,0.5457478727637062,131,69
87,98.98386466584034,-0.3220601476543572,116,76
101,93.99518784586935,-0.7138372091653722,91,61
81,93.26794705857778,0.7157783704924798,123,79
80,90.10811083635197,-0.3822782015270736,120,83
65,98.26551074191464,0.3177108084536844,112,69
60,98.00980700403365,0.13288737017325314,96,79
64,91.04454518100151,-0.056487381218251365,127,89
100,95.768573811327,-0.00836105470292181,122,62
71,94.63981698166887,0.4644758281845751,101,78
85,91.18709095509111,-0.8244541717531189,134,87
105,99.80568227060724,0.3363613239158103,101,64
93,92.14695887463355,0.7916242027971574,108,62
108,90.67234180090561,-0.8844236059602717,98,67
73,95.9484737950191,-0.7186933215326665,99,64
85,97.38866677133032,0.4332638734040628,106,87
104,90.32443446047186,-0.12543670351076486,139,89
86,96.58717638727022,-0.19290275837262327,129,71
68,95.32291875951455,-0.7260667309115283,128,73
85,91.03265008875049,0.013540081435576168,130,66
116,91.72523876946362,-0.7469093776072455,99,70
106,95.6797429731608,-0.046759087378919206,101,67
116,92.96357613513288,0.5272305979233134,104,64
81,99.38315728651315,-0.483471284225673,120,67
106,98.18740229484051,-0.038427663640545395,104,71
115,99.83567206513663,0.9840319387936713,117,74
89,92.59670838950414,0.3733008467080745,93,78
102,99.69723632797977,0.6827135426103972,125,75
107,94.31233869791558,-0.1703047868789085,90,73
76,93.47518795313755,0.5357218462517106,133,87
85,90.50349526969353,-0.9189816541173563,123,66
95,90.52765257859603,-0.75417763491551,136,67
60,96.92011255946655,-0.5938588141598757,106,66
67,94.57928994434027,-0.19609615076956088,128,89
108,92.26521626036106,0.6914897566515263,127,77
94,96.13970306325233,-0.307467898424139,133,83
111,92.52858118250111,0.30924238703092577,122,65
74,95.77631754344422,0.4186285896069668,110,85
106,93.59208746982691,0.1723647081766828,115,78
115,98.2355222661182,-0.2855160636597276,135,63
81,98.2069616076678,0.15410668342708855,125,82
73,94.77350398122401,-0.31546881442050756,94,62
85,93.50819109335015,-0.8322525228959758,122,76
87,93.62559796559094,0.9856079563720288,90,81
82,98.05714525668218,-0.7456350927349782,95,78
73,93.28179482797611,-0.8553032323278853,126,86
83,92.09059373706846,0.7570614984143118,91,74
61,90.84688341875307,-0.39633067821420975,94,85
104,94.66693120884409,0.30059394814701523,115,65
85,94.82132098919843,-0.3419885406755343,130,85
73,98.40908710402907,-0.2170914584110577,136,71
118,92.21238696446063,-0.475774055966407,102,78
115,93.809912736684,-0.3139119884139796,101,65
110,98.08405738893691,-0.17859919882691377,94,70
66,98.23623610748973,0.4408321381846858,91,79
62,93.84611075978768,0.023072388469583593,93,88
106,94.59124023286681,0.8871304343139539,116,79
82,93.03285890849283,-0.916239212322449,139,69
105,99.32554878419312,0.0061366452640563285,99,85
102,91.18643765741581,0.16844957766343627,102,75
106,99.3374942300147,0.8403939721485478,133,86
119,96.83866451835343,-0.9016829527571448,91,77
104,95.3157215268673,0.14699916987043204,115,73
77,90.32659060784496,0.7072598570559141,104,63
117,94.75596191822008,-0.5161445437615269,135,86
97,94.07748105002733,0.7525846970478749,99,71
94,91.61218811975122,-0.9619131814514164,111,79
110,96.56409603500657,0.46490925826745944,129,86
74,99.71150907368286,0.8662264423373061,114,82
84,95.62188811064524,0.31439532328012443,104,80
114,97.14753276443946,-0.12194151203910408,102,67
96,90.68450452566017,-0.910237967054564,97,66
87,94.17666995816995,0.8402276266452575,110,85
69,91.16358485164496,-0.05940755461685043,110,68
98,96.12795835536511,-0.942006511328104,111,83
116,99.38482158214154,0.37964214265752383,135,84
76,96.61777732471639,-0.036325492847483654,122,76
98,90.76803048314422,-0.7513093651151785,134,69
81,93.54666204985082,-0.5714563813794808,116,88
85,95.50663379440851,-0.8710186390883075,129,87
103,94.03207756133253,0.1485870794171471,139,62
84,98.33644010475172,0.2440589585040185,111,80
76,98.14671004709989,0.01148459671088875,119,84
72,96.11831020103222,0.6342042660052298,98,67
79,93.73457945132705,0.7220176426160272,134,73
84,92.55336373763244,0.23124879336625326,124,85
63,91.0587431821313,-0.9744870405851389,107,66
69,93.54897683486554,0.3904593114954713,131,75
62,94.1317251720772,-0.16400156615929684,94,77
100,96.75822925104073,0.13111496645277398,116,70
104,96.58159824297573,0.2981612040377688,95,65
77,90.70108139641258,-0.2995267713458465,121,79
106,93.95259315431157,0.8341970103435885,97,80
95,91.81778867217362,-0.7320502665004376,128,73
106,91.56812705316806,0.34302361456207486,110,80
81,98.27302149737245,-0.9912808400868391,107,72
93,90.41915216716258,0.8493022108103616,103,63
106,94.1918287590212,-0.774991733523817,104,79
67,91.68203655766519,-0.8102315397048507,131,79
99,98.79330215678473,-0.33398473389551153,115,70
108,95.57040513275035,-0.2528674279218388,133,77
103,92.31380636376848,-0.5713998553542428,121,60
78,95.02427287166377,0.1702433218542494,128,71
101,97.31486359703116,-0.11417180391607284,117,77
100,99.58118008919433,-0.9316488219178252,128,66
96,92.20446004245419,-0.36069587548939874,132,71
65,98.86181772129345,0.620865827146341,121,60
111,99.3430411416749,0.37940306972373716,102,81
85,99.16420544532066,0.4497417071597609,104,63
93,96.3541435686191,0.3962338481670471,107,77
118,96.29820654434708,-0.3780539572339334,128,74
115,94.03210633183822,-0.8006721558464482,95,62
118,97.52397882303788,-0.455065631933808,100,66
104,95.31294018350931,0.6635706003703186,121,65
65,96.77438071228295,0.9609415955661422,129,74
96,94.28457903848795,-0.012305970516877318,109,74
116,97.31496464043138,-0.9805992901539156,122,65
92,98.24471517604549,-0.7199103757315419,129,67
112,91.46436256602816,-0.35583884936746846,97,67
81,98.32929715574228,0.1571706971858995,124,81
80,95.40296531790307,-0.8498127083893721,94,60
65,98.44665909090224,0.8867145974197632,124,85
65,94.31301706341014,-0.26983265343119855,136,72
114,93.79040485383035,0.825168435849646,103,82
107,99.15060732517222,0.5610436055140435,110,83
63,92.51169267548401,0.5108745450311623,136,80
89,98.44212325286144,0.21343915956446402,113,72
70,94.84020572509404,0.2535676341036892,106,70
89,95.1409544255126,0.27600647043249626,107,63
90,93.08468281489485,0.2574427740511642,123,66
83,95.73042200619015,0.1074564627967225,101,87
114,93.25211196276211,0.9728280369657778,105,71
68,90.39269414241652,0.4645811348513922,93,86
114,92.71998605344356,0.5538927767850423,114,72
62,90.06379043406591,0.7449256301673484,123,81
110,99.78354787056857,-0.5687204745483017,117,71
90,99.65747209819747,-0.8323916818098784,135,75
99,93.95155297472306,-0.034211126802802694,100,65
96,97.28370854339646,0.02816139123854633,102,73
95,93.45806098410425,0.6583635598998354,120,78
83,96.71093157085976,-0.11243284143532861,114,75
90,98.05430043045979,0.14170605108862544,128,86
65,99.46756244692241,0.05414187702691664,99,85
61,94.00212275849672,-0.9235944324852179,113,63
79,97.83297982956047,0.23042979319382795,90,64
87,92.65928450632119,0.6560865715485045,114,68
70,99.90332303793649,-0.6849989038483923,117,83
63,90.25769598764352,0.18866346785319155,125,62
74,96.03528806501122,0.18722108889282874,107,81
65,96.59505981651327,-0.6716300718872825,95,69
113,96.88045557074129,-0.753072852538528,91,76
108,91.2038757878909,0.9601038859529696,92,78
89,99.3852978347313,-0.2125616606939249,135,69
115,91.81183279050083,-0.5451565425529414,97,89
97,96.22753403239841,-0.6573509110912501,120,71
110,92.22676079123084,0.3352034271664701,137,82
116,93.07216417021272,0.21889059465455762,108,66
61,95.46458541728124,0.28710424597483497,139,77
74,94.17193418564577,-0.8239879449770955,95,78
70,91.60225600976506,0.7870691669968739,103,74
67,91.70936402420848,-0.22146720638190343,92,66
85,94.181447881628,-0.37326118713928413,137,71
110,97.57282978275501,-0.0752771055045216,90,81
104,98.97964646847788,-0.2198678685047435,133,88
103,90.84127662259382,0.7271540062782917,119,66
64,93.93103907559401,0.8585219503957842,135,69
65,91.00245563722876,-0.3930935671007876,108,84
85,90.16592480632598,0.7278716149199096,108,83
113,96.61718682643956,0.5630462590661343,98,81
63,96.02449441966587,0.8616153446895236,96,87
78,91.63019113814886,-0.5084993756282243,135,89
79,92.33812833093064,0.15391830024195818,126,79
92,90.23707753644518,-0.45091083051911074,139,89
79,98.34947205694404,0.6481889809687484,130,88
108,99.74690596048552,-0.9893516188578715,96,69
71,91.35459536794691,0.12963832577279222,98,84
106,92.31475213765299,-0.321593137456164,93,82
60,98.68409523946934,-0.3546325858443595,114,64
85,99.26463797956185,0.28981264772983395,138,77
73,94.1962738280681,0.7029688986279878,101,68
97,90.50622472269075,0.21839078278665247,95,89
96,90.3939183369282,0.706345957293445,107,75
70,95.7394986606901,-0.47080577623794007,129,66
95,93.9289510889318,0.03900370952996224,110,84
72,90.28652427577654,-0.09892692186584795,104,86
102,95.83252392312556,-0.9767102009938076,92,84
62,90.11302536589022,0.11362428628148025,91,69
92,97.87371958149274,0.3230486482923498,130,64
65,93.06432822703371,0.18382880883814012,129,66
109,90.40258003009232,0.47255979756684297,93,64
115,95.88352220983154,0.14267905690615423,121,74
69,93.97684414433054,-0.8664994902984862,91,78
64,99.7380041335715,-0.7671089518305771,135,69
82,95.44198662503702,0.19294915508790478,118,67
69,92.75239181037009,-0.45004161605271964,91,83
103,97.09438864633975,-0.8407097419304683,123,68
61,92.71492002542712,-0.14079451310290647,116,70
72,99.04243291407565,0.10864519616731072,128,89
99,93.74721970507376,-0.3425080233007869,133,87
61,95.49868562776206,0.4408674044515559,127,81
79,90.50573103824229,0.2875412162024893,107,61
60,94.2612123795223,-0.3343632778166561,125,62
96,98.32363539660994,0.5097450578171212,108,72
68,98.05648805363342,0.2973900850660709,116,70
76,92.24318558853527,0.27489075743580416,134,87
68,92.26079071010562,0.10685540157413609,109,69
70,98.17305312213237,-0.9772206638228944,110,86
74,99.30398420169325,0.3930143669537782,112,74
83,90.95360921273003,-0.24791641778168705,119,65
97,94.50058639426226,0.8852194203173112,114,60
114,93.37454278964229,0.6359695421544107,120,73
94,98.7068845545744,0.17538893906262443,116,77
89,90.8352491468002,-0.49563603636146114,123,83
90,92.11125942558037,-0.5925652134446668,97,70
108,97.52468337586494,-0.31923032464490175,108,67
64,90.51293848981216,-0.046864112839962946,130,81
119,94.9253538071429,-0.4078689799221058,115,62
103,94.4210703467972,0.029858990784965567,117,73
109,93.34401178988749,-0.6692591489736281,93,61
73,93.94572315318923,0.9554256256509999,120,88
112,95.29940586930233,-0.7841508900700123,105,75
115,91.61367358388384,0.8638882793087441,99,65
70,95.71995878283593,0.8271560228053898,127,60
68,98.05432329299987,0.05072096363899603,137,73
93,97.60160929790159,0.4498205436721687,99,69
71,91.53899904693773,-0.12790340405482437,134,65
94,91.49249469741474,0.2600691550848764,98,68
94,92.68174367744913,-0.3188481251577626,128,66
60,93.61074726341037,-0.3976819604291093,125,84
99,94.08455581408482,0.1564595723390274,125,61
81,96.79697216833345,-0.0037406516320392935,108,70
119,90.56680432165835,0.15907273829996216,108,73
88,90.34672704226067,-0.426678837425954,101,64
67,93.91910562943909,-0.2660843363660095,102,68
70,96.9716369213798,-0.8322040787421814,114,66
100,91.93435342956482,-0.8954472554555886,125,84
96,96.41504481256251,-0.4930857406539675,114,73
73,92.59828137940299,-0.8515062813389085,117,86
119,98.86086108813517,-0.7924505827305186,131,75
89,98.95689944266617,0.6258568107878741,128,81
94,92.97287204281326,-0.9222526059666214,119,75
80,92.29993753963241,0.3178855878694855,94,66
96,94.11303972066231,-0.454884502369199,106,69
64,92.40531585180149,0.7430913614162529,107,80
78,96.72383843291703,-0.030015430845000912,132,65
118,98.26064684548285,-0.38884708134434853,136,76
73,96.73092130911218,0.03527787137886906,110,60
85,98.2435044724935,-0.23608396190946235,111,61
63,93.96992162207474,0.12860212933966042,128,86
84,91.5631697070886,-0.7709342633473035,139,73
104,97.37950947397592,0.9939810056251022,95,63
101,93.60474505141553,-0.1488882446065649,139,86
84,96.71270825229132,-0.30353872058526266,105,68
77,92.70643941981766,0.42041969663252976,91,82
99,90.81229634806672,-0.27220118700933504,90,65
67,99.92581795487763,0.6665486100575153,119,76
98,91.562015079306,-0.09145855127914948,132,80
99,99.88420993963481,0.4391168265308698,126,70
73,99.77279932566447,-0.7850935671162269,137,87
91,97.93818103908039,0.6922383711102236,112,88
110,96.59422962081997,0.4714359735562197,90,63
97,95.77807050251084,-0.5765664430760686,108,80
92,98.66101545377835,-0.7094279805084267,135,86
82,92.89439521619488,-0.3674153025487512,92,68
74,94.67681212484877,0.9521411720638087,91,87
92,96.19389969366502,-0.48633685086588274,126,75
84,94.1119047586949,-0.08774558210673344,106,62
76,94.27486454090268,-0.9399595485653274,117,63
92,93.30284667502085,-0.20554494086753494,107,83
106,95.64231816684536,0.14264003086620547,122,62
114,98.50574528015116,0.9062492250159302,104,72
61,92.01528378006313,0.03347208988012884,111,78
73,99.34433038753441,0.6382146523553756,130,88
112,96.8908765374823,0.09425528513780113,116,84
99,98.2327321268003,-0.9184299731289638,126,80
99,95.56190692630011,-0.36998344962045193,121,85
110,97.79516701424063,0.15109901566220652,134,60
98,90.16200397339468,0.9011879318622487,108,82
110,98.18380424779535,0.7182607195024666,117,82
65,90.40138859085367,-0.5432887716423047,117,65
65,98.89913376362863,-0.559780339961673,99,81
62,99.91962747238644,-0.5976540657721985,109,62
66,92.94067462176778,0.8449977926050063,114,62
110,92.10318556285793,0.7053323062034413,110,75
67,97.6536336385804,0.5497668645058975,103,69
101,92.53026340920253,-0.21452977155154485,111,86
111,98.65562383172204,0.008761408597533604,115,84
74,91.02842592157477,-0.07133651040969435,133,76
106,91.25955196379358,-0.4932037848812547,100,66
88,99.79151555100616,0.010056092297533903,96,72
92,96.73838898270004,-0.9390069042944911,106,87
111,98.46887224428953,-0.7363792530050817,107,70
89,93.24329377351518,0.7731791923378928,96,69
98,96.76483749520604,0.5033595340628465,109,66
86,95.94241827308598,-0.15426318188182586,127,83
95,96.03150120122947,0.03430072456775446,100,65
88,96.82532459537721,-0.26000222808004514,133,83
97,95.75359173129098,0.4815597343213449,105,60
116,94.29062369302666,0.5683743584641592,116,76
92,92.75922694380547,0.5265703804063182,100,84
96,97.68581330913202,0.44522344966889915,105,71
86,92.26272430003186,-0.5909913226144083,112,63
114,96.92354306154414,-0.32406004151904244,101,62
92,92.33332822649326,-0.06030913003265015,129,65
63,96.25330169954454,-0.3384140171446888,92,85
81,97.4707826712903,0.5098804003166579,91,87
61,92.1871388890654,-0.34129295150009065,127,75
69,90.59943300861308,-0.7235358264293257,137,72
64,91.30973742994173,-0.20191909590339185,113,87
118,96.05996967271025,0.9598288655647607,118,68
69,98.49446406225735,-0.5482371741328482,136,85
92,90.44996821235425,0.22431731788645815,135,70
113,97.34151259041646,-0.1340539003205874,123,79
97,93.41318645950052,-0.8579508647013467,109,84
72,94.78528369919522,-0.024246788003881026,107,80
90,99.28859549845566,0.4043286572966249,103,72
106,93.31971504735846,0.026439951655637506,107,82
95,94.65336933939486,0.7442121274931621,91,78
104,90.13682414760682,-0.4221259666848347,90,62
83,90.81598720004838,-0.8275016573920702,109,71
111,92.58591591134784,0.8731312233160122,123,78
115,90.27852240821075,-0.24360730094356198,130,67
74,96.31375326048251,0.15281110290726674,130,73
88,94.26398356801623,0.5840062522603919,137,81
67,95.48145202728023,-0.35137267224883884,100,68
64,91.74647185896329,0.43232907635522233,116,84
88,92.95932029436617,-0.7291623003643439,112,83
106,96.63824474852726,-0.41741250558898946,127,76
63,99.653027236304,-0.7105787277269602,133,65
71,90.5041677360221,0.6224611168027157,92,63
104,98.90384320855266,-0.5547015295464293,101,63
61,95.76881201311208,0.43480711081042056,119,78
86,95.63919566755624,0.8865967944913051,120,71
90,95.00278535207761,0.055544418137754015,112,84
110,90.69394085904183,0.08005838452137537,90,61
110,90.8987685173616,-0.07793286380437592,130,76
95,96.00912005659086,-0.3482197132127145,109,89
95,93.40958571435559,-0.04868993815016576,95,74
85,99.17268066577681,0.20561506453351885,100,69
102,94.06590537359472,0.9719831443413187,124,62
86,91.43281458702641,0.8755291186364484,93,88
64,97.14718833502036,0.7243059165862435,118,79
79,92.9335342144101,0.7782610714097167,99,63
70,95.25470307355893,-0.0643016334159141,118,81
69,96.9783278550517,0.31488865435492963,127,60
99,99.00264111202071,0.7901334458724283,90,60
97,97.92191194801676,-0.21409847001729387,129,77
65,96.76361067872725,0.9235249566909376,97,63
67,96.79633182395143,-0.168427875861634,127,82
82,99.45924644032087,0.20216533078643129,106,81
106,92.95824097496536,0.41960942654474387,108,74
85,90.01112094196188,0.9011840261518766,122,86
105,92.71954559398199,-0.5107674518954679,104,84
102,92.17891379626744,0.49226195647728455,134,82
71,96.61834585113998,0.041631172288164375,120,87
85,96.33711599765529,-0.46288571875871787,110,80
72,95.93461382704724,0.5532136795927811,92,81
99,90.16243443209454,0.10444456034769312,91,69
77,97.28778054450648,0.3219476412993516,124,84
84,93.23530412485492,-0.35419786284419796,130,76
92,96.6505598900663,-0.037452096344789965,105,86
106,95.56578428502154,0.23470850197613413,134,84
99,93.42730925427907,-0.19017837146031202,139,81
119,91.34576267104107,-0.6032549203045974,110,71
102,90.9441889766048,0.923280984630608,101,79
71,98.31518333112223,0.022935080085234816,117,71
103,99.18397542081559,0.46784074057540104,101,75
95,96.497880467643,-0.17790561288788376,122,64
107,91.03434114860484,-0.28973647194856733,109,88
63,94.0202721688824,-0.18567140306575003,129,75
64,97.28939200105157,-0.1816067124287004,138,76
115,97.79820884010068,0.08836023188390718,110,82
96,91.18218622291089,0.0869397399627263,128,88
67,90.00030718845382,-0.005692368234256673,130,74
101,97.12137045880606,-0.7304284301651238,138,72
108,93.56596175986206,-0.007849042998937739,131,67
87,92.5448133161826,-0.661792199158697,125,86
90,90.12897469789526,-0.7477284274084697,111,80
117,95.402994067615,0.8652914346823355,115,61
68,98.51150735425982,0.2099000262954085,96,67
113,99.57631646272588,0.31898011624916855,96,69
110,95.65744950613289,-0.19641265933327245,97,66
88,95.14461327739895,0.8179617838297284,115,69
73,90.85056385489241,0.27586097915933094,113,84
99,95.48872801542599,0.5383397390471749,113,63
100,93.79979078965394,-0.26287506194457233,129,70
81,96.07135280883577,0.920023761638251,137,68
70,93.88726347876546,0.6409225803166301,101,63
82,92.40299123450367,0.7078969260290873,136,62
60,90.94965275228377,-0.6556114651484914,97,70
105,93.14918444588896,-0.45807358425756095,98,62
96,90.96644834287753,-0.42874680063284587,92,85
80,91.76896950823983,-0.45818155350625767,110,77
85,99.87336158579546,0.7108163242085759,120,85
105,94.44103556906619,-0.9362304095828158,137,78
95,95.31871766505017,-0.8478000220384514,136,73
113,98.73618528737215,-0.45217025874019257,113,83
82,99.95568900490687,-0.6002540507011127,93,70
116,95.82714449344681,-0.5362807722343033,109,83
60,98.12473821044172,0.5958863785066,105,61
113,93.26941024336675,0.12625318778409378,99,86
114,93.05743957447291,-0.988458677414064,132,61
110,94.0270372099456,-0.1413544685916095,115,61
99,96.72507262673649,-0.18423014629928214,118,69
74,96.82191689255099,-0.7721094611109129,94,82
80,93.1523943464945,0.35228357720291426,100,74
106,91.3320992413663,0.4041943767589822,118,81
68,96.32396256465509,0.4417864381041954,134,71
112,91.28325862188764,0.4569418911171841,104,70
68,95.7849250822933,-0.9998943461354064,95,76
69,96.9342212805631,0.9078416076934444,137,77
111,97.00611496394451,0.6284175341093261,104,73
116,97.53472110659597,0.8079633931785706,132,76
112,98.72859421565664,-0.9687134093851317,109,74
85,94.99958991964789,0.8677175915714788,123,71
100,97.30249189529572,0.6195770573762094,91,86
94,96.19172735365837,0.6744382859173972,133,75
111,91.86639939797682,-0.813425230556063,105,82
84,90.25689644869408,0.47755605783719535,108,65
85,92.84541385676934,0.919833379284182,123,61
70,94.4303370633762,0.3570946828363213,138,61
97,96.17105944428656,0.14112280924921294,103,75
61,98.49959330503205,0.891259355497994,113,61
66,91.96245716706166,-0.114125756531128,117,67
77,91.25549789898477,0.1985871326209574,137,89
86,99.63479947474328,-0.047323413011267634,121,66
93,91.08044559376407,0.8656924427205983,126,60
86,94.7849107010719,-0.8478305464689855,99,63
76,95.85563728793302,0.00223940165069636,138,70
102,95.41374420907438,0.37390488277087663,134,79
118,90.86032157032943,0.5838130768444738,137,66
103,90.57026914003619,0.16603729488827268,98,77
118,91.05483427461036,0.817835488242908,113,63
110,95.85587683872612,0.8839828937677434,125,76
113,95.44344887634321,-0.871361553612833,118,88
83,92.33740792036744,-0.19525892091725128,118,88
84,96.37774141845591,-0.9530819565576911,137,70
66,98.20067502055649,-0.34116668525111415,112,70
111,90.41578959846593,0.07373643594120427,116,79
65,94.98129943548042,0.8215898610198977,120,70
112,96.89310412102691,0.6931086449308057,132,74
83,92.52311927069687,-0.7450005466560286,96,73
92,93.0777090529315,-0.8139392505182086,138,76
108,96.13637902989385,0.17853467751333407,134,61
88,98.97935293443737,0.06423594491756535,93,77
102,98.09924420302899,-0.4672447171399523,103,75
81,95.83130219099584,0.7989061691076704,131,71
85,97.30221717757249,0.8547328189231069,131,69
87,93.64822470207798,-0.19477712331967467,99,87
109,96.40965528098758,0.7806051142270405,133,75
80,94.66181591127557,-0.23210221147405474,123,62
108,91.89936136457561,0.4736336636594003,115,67
66,97.01738273877257,-0.04811556490455171,112,86
76,95.56464637348822,-0.754833686985634,98,81
79,93.58621581953591,0.855868402474043,126,81
100,99.11339190078631,-0.09180681324492679,97,84
108,90.20934117826734,0.4689740806448073,103,83
79,93.15773151249496,-0.2656523711374157,96,61
113,90.56881397777647,-0.9622382428475307,96,81
81,97.66527316221627,-0.7989392826163282,98,60
87,97.02107454113792,-0.007561041020151205,92,88
99,93.31352218736318,0.3799287142527248,103,73
108,96.75662902207073,-0.33052934684144186,106,84
66,93.9593722619595,0.3909769183553007,139,63
60,97.56253791422435,0.39727117886391206,133,63
91,94.54183662736706,0.4078718146556617,111,68
72,94.12279727831665,-0.014956291958983181,135,62
89,99.347299154883,0.829772300243008,115,64
82,92.508790998907,-0.021606964038768828,117,60
110,91.20447339996565,-0.09946961300672363,134,81
118,95.84543113259458,-0.601238361978746,103,78
115,99.69321812284178,-0.384689825287327,98,60
78,93.77839213727187,-0.9153310149633933,115,69
91,90.62036763628781,0.26707058723234045,91,81
89,93.39305267309567,-0.5029285121458142,100,89
88,95.05931654319558,-0.3916894910290698,106,71
108,91.61923006632213,0.5416290433286424,123,69
104,96.58102218056491,-0.34555763367709225,108,61
88,99.97749389010201,-0.5156082159737156,128,75
89,94.51739475981444,-0.6618845017325885,107,67
75,93.54728556730213,0.5497168043639118,102,73
99,94.00704166834467,-0.7405874840199462,94,88
78,91.15146178395202,-0.09249247949929296,139,74
77,98.83273601426224,0.013860232154388807,112,75
60,94.14825655521352,0.3747798253714292,113,70
73,93.87274411424842,0.26656696466599095,118,71
110,96.59690272930474,0.6214413458903496,137,61
106,94.42033420931124,-0.9104971321475237,136,63
109,96.48233468807847,-0.4071185504412056,97,89
61,90.61446290130787,-0.4397317624492405,115,62
113,98.13723343722228,-0.7079661888157835,104,68
87,99.40503952879402,-0.42164349228711373,90,77
108,96.48765386159386,-0.38046937171419315,117,78
109,99.54565928858811,0.043768923854956565,138,66
89,91.51432314369963,0.3274089578525121,136,63
97,94.77416189480354,-0.23779897277637185,135,65
110,96.01806733945448,0.43894046262676234,103,78
63,95.81736647421187,-0.32766932284084005,131,60
60,94.01461779089043,-0.4194326453704793,123,75
67,93.38084409366262,0.08237611171404868,120,70
88,91.26824022550419,-0.9525672793884188,95,81
114,93.91742450562278,-0.8404217527319993,138,63
98,91.62660815105485,-0.1640609128269459,94,77
62,97.34365676492219,0.885825422783513,120,82
91,92.0883093549459,0.44302355968684726,126,85
69,90.58565305284534,-0.8237468609988845,104,88
69,95.52366137817235,0.6926360255617474,104,87
78,95.95229732719402,0.464601541216362,132,88
105,98.71913061280506,0.22189305140530635,94,64
93,95.76981612417681,0.6405859212183547,117,81
119,93.45480853723446,-0.1917803045140858,122,65
92,98.03011881526321,-0.5569978982922945,100,89
82,95.40278893187421,0.02404677821751866,132,84
114,90.79280284631191,0.09768351118694762,95,87
87,95.65850560313247,0.07665274401982414,112,61
91,99.08018545421662,0.13014758296021056,129,71
109,93.9631262549822,0.8974098364783616,91,81
66,92.963258018998,0.8044912461924627,104,68
88,91.4346945701802,0.7514340731178788,112,87
67,91.51445521935358,0.6028336218172543,111,79
60,94.32771484341819,0.8868562145305707,98,88
116,95.9567982416153,-0.8030107166411935,136,71
114,90.80615405169601,-0.469753477108521,129,88
62,99.39568589025166,-0.009888108690830233,119,72
83,97.55133617445196,0.6930689862468105,105,86
82,95.86623918283662,0.010331423045464971,135,81
118,98.2843867093899,0.4960694786831774,136,82
67,90.80186756812114,-0.7220801895021676,119,76
113,94.76838877733124,-0.49517237404687964,134,64
116,96.30093126861664,0.46355219007534476,98,79
106,98.28652906118289,-0.6705319822245519,90,72
96,97.83469560049268,-0.2972881306901465,127,88
62,92.770692497134,-0.47026748437285715,97,72
110,99.40880169559205,-0.30027661155504304,107,69
92,91.2434584143087,0.4166480981559406,116,74
87,98.75133618621152,-0.26430563771439797,107,74
106,99.70940249604618,0.1105266452158804,121,77
67,91.77153523222626,-0.8001362458911807,138,77
93,97.22066064203786,0.6100353864692556,121,61
94,90.40285518777999,-0.2602227487037503,137,82
91,94.05422825139155,0.2970683180666849,134,70
83,95.16283299197674,0.4507792033236653,125,72
73,95.80645225909635,-0.5806781557765992,125,70
91,99.3593724824856,0.7693499699066999,110,63
115,96.72250687294195,0.23244850321390587,135,74
105,94.81277951219236,-0.14254971649703707,121,81
102,98.0967503626589,-0.6353296328435609,120,82
75,99.50532820954409,0.8846018758024135,126,84
63,90.2206614868229,0.5101364082632502,105,70
111,99.8252127225604,-0.5839508745335023,135,77
96,90.8613213906368,-0.324578450551551,135,75
113,98.14386779268762,0.6193485161761465,103,69
80,92.80334752551413,0.39135532643067794,113,71
73,91.32179657753872,0.5315685854314487,114,72
90,94.39855639713835,-0.11759779557413519,135,68
114,96.43956579447614,0.4329525252843338,124,86
107,93.80951845023475,-0.2270125542721726,106,80
77,90.54565408282699,-0.5774741661236071,135,72
66,95.99461139658716,0.2653540696827199,131,65
69,99.02403276110675,0.9520278511975884,134,65
66,93.83215365947251,-0.3787980572093408,93,70
92,92.16332777630826,-0.07806081557492073,100,78
82,94.42577345932816,0.34800274213970717,136,86
80,90.4836271104878,0.08301256424497572,104,70
78,98.20487584480274,0.6868555914180985,119,69
107,98.26340810950187,0.5234854129390318,113,82
78,95.88000463429628,-0.8834055922752859,91,74
95,93.53102888938389,0.996842467847548,132,72
88,97.99783364445783,0.5048049074389345,123,82
119,95.54687024788367,0.7278066325882264,112,67
77,98.25932308550016,0.30239542419069276,120,64
61,96.31458792583021,0.7125702560935245,126,61
60,97.84405473212797,-0.7752340501425812,102,75
106,95.9856299321776,-0.3045243288813688,122,72
64,94.14141068215666,0.7528418872089855,96,78
79,99.57945859926137,-0.5966895774662155,121,68
70,95.41113824878845,-0.8435158028399545,96,74
101,96.05089518540538,0.576237879890438,131,65
61,92.20487639414749,0.6709723112865924,127,67
62,96.25650789427277,-0.6746955636201988,133,83
82,95.71607649482944,0.7086919655654309,102,73
114,91.84838397947026,0.3735355911943392,113,64
71,90.59587097353143,0.040165366433167815,117,76
79,96.04359319714771,0.66050038556277,121,81
64,97.63692269350321,-0.16150150136206842,132,66
96,95.23401370922008,-0.6120120875532056,107,68
97,92.26772625319646,-0.4302946467787727,123,75
89,96.66521976693035,0.010328036586629619,137,77
68,90.80105726609602,0.06266158534635147,123,87
93,94.41833704801955,0.6111616528824673,127,72
112,91.6336675839842,0.5827054473046689,90,77
103,91.84459051059883,0.16273311440914973,132,69
94,92.02293949158204,0.5615709667309527,139,60
111,93.86707057043978,-0.616453083412658,131,80
117,90.51150205620398,-0.8998709458134113,120,77
81,93.97793440929098,0.7472676452694003,139,78
103,95.117074471147,-0.8488910124744609,90,61
83,94.83294284966325,-0.5066231405120054,105,86
76,93.8278410040304,0.3906378992487691,128,63
69,98.39146608070753,-0.18110412474538173,104,70
89,91.45326692420504,0.7526279398310176,122,62
115,95.05696743781374,-0.4040404106754609,112,68
118,90.62041416956555,-0.9762573066612814,130,69
105,90.71155678877909,-0.39868871887851176,123,87
82,95.73865849677097,0.15615009836966331,106,61
91,95.66018424887821,-0.24812324919341333,114,66
76,98.78033512844456,0.06974551151751052,131,74
109,95.57873675660073,0.7531962376700374,95,86
110,99.5979102040485,0.824970108460737,120,89
76,90.4869484839993,-0.4680518706917758,94,78
73,90.98007684780741,-0.07571905346019858,129,69
68,90.44065861570381,0.09828803048290236,129,83
99,91.8527685033354,0.8982249137764942,119,79
61,95.41270110941679,0.9972346383287694,94,73
104,96.45572181427428,-0.5291855023169467,101,63
84,90.45585157948669,0.45395974269163086,96,84
98,99.459708898456,-0.24393787553360968,134,70
68,98.42165376650381,-0.9837836062275735,102,62
113,92.96612482157093,-0.9814949551281953,138,82
81,90.77187530226468,-0.07886798487548852,93,76
102,91.69887073219057,-0.02333017399133075,139,66
105,91.26944413754973,-0.9548606068531147,131,85
63,91.23283779298947,0.37385483354860494,92,70
85,95.18561688665734,-0.41199322281009376,101,77
117,92.458474424934,0.1197862030718988,90,87
88,93.58139716529145,-0.39816185366916246,116,73
104,99.89505333384322,-0.6657313702613856,132,73
93,96.84314248925345,-0.18565252280224942,139,65
82,99.48980667047002,-0.5354532704189985,102,88
96,91.42556555033116,0.06960195383833612,106,68
70,93.82139474832569,-0.6023429394270401,97,81
65,95.54731803282354,0.01681195328925411,121,62
77,90.76758061888738,-0.6852429702622649,109,76
80,90.04187443627958,0.34194941897156994,106,87
101,96.70434333796918,0.5078753688828481,123,71
95,96.41819516801435,-0.7792115315001324,124,63
100,94.10788809999612,-0.06439517592532162,124,79
97,94.89644076032033,-0.8582565986902528,127,75
93,94.1544300059209,0.1963648910840048,131,88
76,90.24005044844888,-0.47119140414070926,113,83
96,93.35371606217463,0.05524891367741569,107,69
84,91.77082255397289,0.034922018768582364,139,85
97,90.98424189101368,0.8487086923876008,135,89
117,99.5672043388935,0.09816644513744577,137,88
71,95.99359725042166,0.1659969594366313,128,66
82,97.28656284236602,-0.19669374847123944,122,69
112,93.15363743266117,0.8981592063656336,138,66
101,93.93147129494015,0.5543718188792193,112,82
81,92.36923993896724,-0.4291894193943169,114,87
80,90.96965670965425,0.6884191715524641,126,77
86,91.79031637441584,-0.13520727962982004,116,68
116,97.97514045296487,0.6573342870671879,90,81
90,96.77545805183776,0.6457761365870041,110,77
65,95.46928875985476,-0.6222596264742912,138,76
86,94.75089872866768,0.40228226276715384,99,70
99,99.22434283656125,-0.4187140613869378,120,60
93,90.72734947778669,-0.4050146600146636,133,76
71,92.80600813237916,-0.40730384623883853,114,63
104,93.49937853570714,0.4511364951198964,109,63
116,97.82425812212787,-0.5403479164149279,91,73
112,99.92514620161971,-0.9981883295078195,137,87
66,92.40670514757153,0.4304737069652662,104,68
69,98.7430733413708,-0.6576305123297495,117,72
104,98.30622760431791,-0.7910352093843307,102,87
76,92.24657397641766,-0.5249677588118797,139,87
85,93.99332580199223,-0.24019895535459201,103,75
80,94.0967286929252,-0.04818734505359856,139,60
87,99.78220668526558,-0.9108599185747384,91,62
117,91.80891901378898,0.9411466652547209,123,78
105,97.99157971104782,0.43212610683911623,124,67
61,93.3419271417311,-0.3536118693513277,126,77
119,97.30870345776161,-0.36260548542920534,114,65
113,94.20011004295662,-0.10291490126308123,137,86
102,95.7835976311654,0.2524896455260659,104,79
60,98.32611773326131,-0.7072538668220645,101,88
110,98.04165564983884,-0.6221403724700953,98,85
112,98.664231835397,0.7188691656671018,120,65
95,90.5961732534466,-0.4874901522218549,103,88
110,96.92050553039745,-0.23961000404964494,118,64
85,91.39987376721763,0.7425437019002341,137,71
88,94.1581856801841,0.32629565879964506,132,68
80,95.48588415054688,-0.3165762413166233,127,68
70,94.0273948474683,0.36739909144924154,131,76
99,95.19611675803007,-0.9606335692371726,97,78
70,99.96526308798619,0.4712853200227305,137,76
95,91.35217313712855,-0.025967918967521042,92,81
108,96.75456045336426,0.6263642945689225,91,75
118,93.96000966385616,0.9092753040129367,105,71
98,91.3300979890733,0.8515770989891367,108,62
99,91.5873676337431,0.8185300869106815,119,73
94,99.49273106245617,0.02433991186777429,130,76
113,98.79601496711763,-0.2797157717221239,105,81
93,99.07041960415022,-0.06992935053865446,120,75
114,99.91532775827386,0.3797920066267215,117,80
106,92.08315390008518,0.7679955537423735,93,71
83,93.55439337364062,-0.5860273939997609,99,87
113,96.69219029924867,0.836386316923406,134,83
81,94.83802539860648,0.6303604639397782,107,89
64,94.18389533378334,0.9577120303564692,136,61
115,93.57811249335593,0.7605035465633743,121,67
92,95.93780631943451,-0.4401253406161867,119,71
117,95.75593428640082,-0.7880881773119046,125,80
95,91.6145783406424,-0.7755178560168228,98,75
106,94.71739837518439,-0.4175533628434478,125,67
79,95.5347177620985,0.22836744796907849,118,87
78,95.70286938731391,0.608640652194345,105,75
94,92.10107192912352,0.7985006139631294,117,69
111,97.42271392252287,0.24750676873846555,110,79
102,90.25199094821069,-0.9887373745038925,136,74
76,93.54831855543162,-0.627366446962933,91,63
118,97.80212648535634,-0.8005475922932641,135,85
104,95.63892921055402,-0.2733510488619799,124,74
102,92.61162432510861,0.0027019872674918233,117,63
93,96.94953119343047,-0.9132056428428783,125,89
68,95.67390944156074,-0.30304404840868937,120,70
85,97.96243609456387,-0.6416406507493548,122,65
61,97.35025186189823,0.29414033251774785,112,63
112,96.10107922036235,-0.07145526135131997,130,68
68,94.88177675310814,-0.009364706132182432,106,68
68,91.33182125667524,-0.14461642393307783,135,62
99,92.61333017885384,0.912039420973134,138,82
76,94.19099472917085,-0.5705297497568735,90,87
60,95.99299287006389,0.03332851968774864,131,64
84,95.13707855215304,0.47203473673067187,112,74
102,92.8818452595953,0.11368882626912513,137,87
99,90.0646435778971,0.8580417714336022,116,68
101,94.96239221900814,-0.24406328871743166,114,61
84,92.85625988562244,-0.07264838845364396,121,62
98,97.34608300710535,-0.8229553695705432,108,85
94,90.23946265270483,0.217998222103857,113,80
62,95.84827811305792,-0.4235760631037879,92,71
109,99.41474237506065,-0.6793819209688623,101,75
96,91.744092671115,0.08906258580901616,124,64
103,94.71649490750596,0.06462052675982122,104,69
103,90.91421991817138,-0.8482567175519049,106,87
110,96.25681912261352,0.39643090698894556,139,74
89,95.50531680596225,0.24754438130170575,121,73
97,94.07365524212832,-0.6219654345070056,96,73
93,95.21377021473741,-0.06113027569191232,108,82
71,98.9657465846901,0.4406458329571199,96,72
78,91.96294302311067,0.05887148108255302,94,75
96,90.22564511705347,-0.20902184763285958,129,89
103,98.61664884699101,-0.35532308383811273,110,67
118,95.77117082387906,0.2207877332881072,137,67
118,98.90658455461842,0.8782173966204811,137,89
108,95.96945223413172,0.3434896809549668,136,76
76,98.10161089959702,-0.850508192727369,96,89
69,94.29673363355148,-0.07863005303573245,126,76
116,97.49859931288269,0.7816482630212551,112,62
114,99.13041466889857,-0.8110751483978262,100,60
108,95.72122963722207,0.9777514242750867,99,76
106,91.8078515056238,0.8981387872908426,110,85
71,92.68797615030198,-0.8434510385402483,130,83
75,91.98644576897406,0.8668266408991099,122,75
83,92.46857027595733,-0.2737348194810756,109,76
78,93.06415449351036,0.689418334151725,122,84
67,95.55133786753188,-0.16323332457345696,129,61
90,95.87991629463832,-0.11828977459496826,124,84
80,94.26499747241861,0.2684861819550852,123,73
76,96.15420779820835,0.5489548385519667,125,66
82,90.81574925611366,-0.9324216981035027,116,84
96,90.8778823705816,0.18631199105426854,108,78
113,91.71829460357658,-0.626534011805258,132,60
75,95.18077498040344,-0.3081009642735941,94,76
65,92.13994678698313,-0.304062667689567,118,86
67,92.83284403492577,-0.06187931955769277,99,69
84,94.00312836172994,-0.33172717624765324,129,65
77,98.11866124010379,-0.7852777630986645,102,66
84,90.1386213591286,-0.7087425229490971,118,84
71,96.49378820236622,-0.9331240288778047,94,65
74,96.68876531040685,-0.059501829342491375,101,64
118,97.98655780356637,0.908895389705977,102,89
85,99.32752939060313,-0.7686495527037669,111,61
100,90.2013784894929,0.892528986006164,129,77
104,91.53783705513216,0.4667230294641871,104,83
85,98.86171294055993,0.27499760586832633,102,76
106,94.58518562187015,0.2905555106471258,90,83
91,95.64590638933464,0.6534552967925642,127,86
69,96.63027203723148,-0.7861602712403573,132,85
75,96.79066604495637,0.009508647131083459,134,86
66,99.31740403316508,0.39418227652151705,90,82
76,99.9694941741167,0.17364089014712736,100,66
82,97.2015746093094,0.6655581420465893,132,80
85,92.87221209205151,-0.855456581977297,129,78
80,98.79752402294343,0.3814020789983319,111,66
81,90.49220914540761,0.06805546076943547,124,82
117,92.31080852874496,-0.24167827204011316,133,66
66,98.97385717463715,-0.3194500355319383,95,75
73,92.56191514439355,0.24166526554838574,117,71
74,92.20651059621748,0.7819907492885296,120,74
112,91.38125293140247,-0.007648147797769456,97,74
66,98.59111757646916,0.6494463281538403,94,70
68,95.00058259191087,-0.19568723631206497,131,61
110,96.74893203054155,-0.7952110744136469,137,62
107,92.39066384075029,-0.8769885270827229,133,78
67,97.58040421011216,-0.8973312573526449,106,79
109,97.60005544962098,-0.23969971608466012,127,87
118,93.125980249083,-0.32552449832831587,98,84
82,94.10682633010283,0.435874047245139,99,85
88,92.09690277430201,0.48564300316973164,109,74
77,99.76561023322904,-0.8982920623325203,103,75
90,96.45602577058412,-0.5577534742219701,103,60
89,99.34543880715515,-0.4514762996822006,115,74
111,93.03385543629133,0.09522396828561885,118,71
98,97.8189091299689,-0.7109695521860995,138,66
94,97.65858643884742,-0.7321175611999993,116,66
77,96.91655651866542,0.887577778415916,114,70
118,99.656389752668,0.608405814595562,105,79
101,93.93555336106316,-0.6386901958176594,125,88
98,91.30717323589758,-0.18686438418901807,123,70
76,96.7170885924406,-0.2887560014848689,105,76
73,97.29309800477206,0.5820081481308146,122,62
90,95.75060573458815,0.020425832956244117,92,75
83,92.06817893133396,-0.744300526013066,112,64
94,95.04455941669356,0.47798412631248777,100,87
103,93.1218973656913,-0.2062240435501621,137,61
119,94.27466528166688,-0.4741515047357059,107,82
104,96.45218575844663,-0.2490027559585597,136,89
93,97.45214742690834,-0.004486872786207297,130,85
62,92.32224690901343,-0.3137689671659811,133,85
96,94.05325360646954,-0.5161884548164843,118,66
102,92.69161570991629,-0.20299594239203933,139,87
99,91.98631613861869,-0.9616541785002035,94,69
85,97.83387219995838,0.5449956921926278,113,64
114,99.09252694436992,-0.6581102128648284,118,74
82,93.70232185684577,-0.9121907727387255,118,71
103,97.51278924373767,0.3073973858101584,115,69
98,98.9699528936441,0.5478722576473445,129,81
74,98.46124210530232,0.6276582631856864,92,76
115,91.82813388539226,-0.012981634678800091,91,79
108,99.56291881513361,-0.5892636306200294,114,79
63,93.76676440429462,0.4744553544996535,108,70
88,93.39240661173837,0.39942615430867434,129,67
81,90.6243132727778,-0.5074585317936535,91,74
84,94.86173654104883,0.806815511725586,108,61
72,91.09013615640929,-0.791257083834342,90,76
77,92.48539820927427,0.9653764791826513,116,82
92,93.16942621767281,0.7204956219549292,134,65
75,98.08826323491684,0.3757972909581504,138,80
104,98.75488650395897,0.8774997765596657,124,87
101,93.0246631746147,0.4446223366474156,130,72
103,98.58698121244574,-0.6190860059399081,94,88
61,98.5723093736979,-0.11568772377437653,127,88
114,97.64650950384873,-0.8569939513367293,93,67
94,91.46695114015182,-0.2206851554237692,106,70
101,96.90322846900729,0.4832060394744173,110,74
93,99.45024064580569,-0.22711329813836523,137,72
89,96.82540478767157,-0.3394116490637318,120,77
118,93.31616849107834,0.19071144502062376,137,77
114,95.00579317430831,0.74440905799779,111,84
72,96.45725043351054,-0.9048336149077751,100,76
72,95.10570408728503,-0.22905913060052918,123,81
77,91.1995294173097,-0.6835185163694746,138,72
91,93.12064044652021,0.39070850146373926,104,88
91,98.02396030553632,-0.7885508791377303,139,62
94,98.61418046095517,0.3296155171604891,99,88
118,91.37300032715571,-0.42763825840418535,127,80
98,99.52386752398725,-0.6021663725255506,121,83
105,93.2882261784861,0.8727051156499708,137,66
111,96.6231373873072,-0.9629508465080883,120,88
88,97.51825145956681,-0.12444545622086212,126,71
108,98.11946234637884,-0.9567460150764124,133,63
88,99.4574970222593,-0.03281390379134197,117,83
112,93.12919548028823,0.0020947555888364278,120,86
103,98.58506454551555,-0.35667505721050596,95,86
116,91.31686903436207,-0.7356764449499527,103,85
75,97.05040906353592,-0.24722492453104938,112,70
115,97.41977729513985,0.34452587986513206,105,73
103,96.7772324120132,0.5647916172889182,114,77
106,92.52314736135153,0.061501204776284624,128,66
116,98.73043147015204,0.1796687888795112,91,64
69,91.68858463370395,-0.5987672577506946,127,75
89,90.53634791520831,-0.4253393335447011,130,70
84,97.17464990611913,-0.6762087798952832,128,81
98,94.75475715232734,-0.5014092999907773,123,62
79,98.49098019958676,-0.5502264395489365,129,75
64,93.83397141058259,0.03889757278247519,132,70
60,91.68278588507712,0.12537751158145882,114,69
89,98.36442192469869,0.889894841643009,125,82
108,95.48909631640072,-0.6088587057969539,105,82
62,91.89195792390355,0.2833514203229919,107,61
104,97.20383998586446,0.6345185379750458,102,75
73,95.111136384895,0.12048292756610501,126,76
115,96.0431298224032,-0.4899926949978486,116,69
89,94.60898338206582,-0.47489953995999956,123,77
109,98.28708983818007,-0.9214938938580002,100,71
63,98.2956271568305,-0.3891115469030366,90,67
77,97.09388821824386,0.4892073580067602,102,86
96,91.05401377396463,-0.9049644855857792,119,85
84,98.38853861904069,-0.5614094349903387,94,62
107,96.7101298053291,0.4124649970635639,107,86
60,96.970241660043,0.5653031256457532,103,79
112,93.62982840403872,-0.08936317987614317,102,83
105,98.79279556157007,0.3961486769572977,121,62
74,97.25371600234857,-0.22409566269021597,96,65
68,91.12590466529194,-0.680173509951745,97,61
74,94.07778034406162,-0.20370101295418697,139,62
108,98.86380361960141,0.15993564040628572,96,76
116,90.47196701697379,0.8961065637057806,138,68
83,99.6141661964205,-0.8624980958226454,105,63
63,96.79162568319563,0.014788187689921184,132,81
71,96.31375977643377,-0.34216044357855124,120,82
118,92.70559256487991,0.016623388553389074,116,61
117,92.48791788739177,-0.9520491052469366,122,83
96,99.42058219488595,-0.37394929059683735,118,87
96,92.98272454234123,0.63973629505401,97,68
102,97.75505296719,0.10788346770927504,122,73
119,93.93121798207079,-0.0988350143677652,130,85
65,91.39254070784703,-0.42894985656932083,108,70
98,90.10715297695359,-0.4039149544172882,110,61
115,95.4425733701525,-0.23379713281883108,130,80
105,99.75778818548933,0.6711414199291208,110,61
83,93.69136193809204,0.9344264136165368,114,86
70,93.57192333993045,-0.12268923729925096,131,64
72,93.44091617849442,-0.21329432250447633,112,66
93,95.20543837304858,0.6931015516397256,100,81
84,94.40664883424293,-0.1461893587273928,122,63
66,98.79914626727015,0.1040363445913024,109,73
111,95.0552079172349,-0.5381166708025111,114,61
63,95.07757838188569,0.4870050715581504,115,82
118,91.38371594720556,0.06397663654156371,129,71
67,99.82739540910386,0.6180691004806833,101,69
79,92.4997289086883,0.5614654600573394,121,84
88,90.73364067459603,-0.5699904634599429,122,60
113,96.63146248975208,0.4312711011155248,99,78
112,95.95366370156873,0.6001088159027428,93,82
110,94.15145653992745,-0.30778551843520985,104,75
104,94.22192233880678,-0.6547817741954509,95,74
105,97.85063921046431,-0.9947356888408236,116,73
69,91.95712640099649,-0.09819269381370366,94,68
102,98.2025331894489,-0.29513453692231684,94,88
93,96.48747113895018,0.10981966765081785,107,80
116,94.18969773779524,-0.6239178148224285,117,82
85,94.58028616583869,0.7193310953329504,124,74
100,92.56647207186096,-0.4844895687437807,111,85
108,97.52114332696975,-0.5471407898247,123,66
117,95.12874742305267,-0.03857188703128811,93,63
62,93.20854542749844,-0.0022979525114514843,107,80
115,95.9605011576095,-0.5698295424298143,130,77
65,99.95734452051323,-0.45627854654816846,115,67
64,94.35262279656554,-0.6605895216895101,131,71
64,99.2069140077862,0.43692035664633355,111,74
113,93.45016839924565,0.5401780625081638,136,74
106,90.54732706924986,-0.07534300508143477,122,76
82,92.04242106368429,0.4281740453700349,132,61
108,94.18695143327685,0.471870783874891,103,71
68,92.19634928594569,-0.7234489446443828,120,62
94,90.00227038218256,0.9323560496690735,99,66
79,99.15001537747527,0.642063894192862,113,65
117,98.4387941123093,-0.591033077608353,110,73
108,97.42292231486947,-0.6276699285078595,137,82
118,91.67814595646028,-0.7486777088408345,97,86
101,91.20363576209986,-0.7232428749161632,121,64
94,90.67604749472383,0.49632359805739235,120,89
109,97.24029188772921,-0.0606914860967529,123,63
77,99.28807960687885,0.5658683454797344,112,74
76,94.30535820913038,0.49250978870041084,114,66
83,91.19140671996048,0.20922542701044322,96,62
62,95.12392820732107,0.3727332131573591,108,72
91,93.4883190745863,-0.9632885512417164,96,69
94,93.74824924349997,-0.3764447063899561,136,82
97,96.21330624155708,0.2756443585188204,97,61
72,97.18718113262203,-0.9813100930275116,103,71
115,91.1060359887316,-0.9340461126348132,90,87
106,90.35590230806477,0.7037759649407664,102,83
84,99.94330302685715,0.36804972338414355,92,87
68,92.32728348915552,-0.4692605337593121,117,81
63,90.53830524908459,0.375925680237418,127,71
73,91.8987532909592,0.5849133382785265,104,78
96,90.38957846348464,-0.3864114337797975,125,78
93,93.91810894617171,-0.9279252450016251,92,80
70,98.02401784451324,0.865558249375469,93,62
100,93.41244449757721,-0.30964032340873904,94,65
115,94.44183406878366,-0.7870364734305872,139,61
62,96.75586773567439,-0.016286257213705246,115,83
118,95.0889407006988,0.5369355913282676,114,72
87,98.61445686021324,-0.5567053707648817,99,86
88,98.66035675045757,-0.4610198997332733,97,87
68,90.09910695491153,-0.5145700264028337,101,86
62,97.78046306483199,0.9833461056633563,92,68
84,94.60733600241674,-0.6051925325389149,116,72
93,99.88840541303664,0.15104043393224797,139,82
71,94.83232075875435,0.8505292833139286,112,73
101,99.86895945388298,-0.7062068622444415,129,78
68,97.54569361205736,0.9417083957354004,122,70
74,92.48604884613306,0.8949544687912492,103,73
99,95.38394979286957,0.7691439741165251,112,75
84,99.92135639478583,-0.5708869573399955,120,69
64,98.57530607751923,0.26811011202196666,102,79
70,90.97366893791221,0.5217829459224803,101,75
118,97.06371996809996,0.9720558563928594,124,87
93,93.45579585870813,-0.6391523558372592,107,85
83,90.06982261880349,0.5320517990385929,110,61
119,94.03480969027,-0.3223976601457741,134,84
74,92.34754421724972,-0.6487470688639954,136,75
97,98.18869270520472,-0.15724611757229012,131,73
67,93.37330608845765,0.5876718242972327,90,80
118,98.27523693953817,-0.07030039259189569,127,87
64,90.00597938834795,0.075046200406097,130,77
107,93.0781915002612,0.9903188204002424,131,85
85,92.41165214307762,-0.20178140088514795,136,65
77,92.33567361068611,0.23080150941847966,98,66
65,90.68186619765463,-0.2695115967692563,112,72
96,91.87124270410501,-0.21442870734259012,103,61
119,95.55549569885619,0.3912815068908162,100,74
107,92.91361072837745,0.875773952189767,96,76
72,94.17394782329148,0.08471790098464282,120,72
87,93.76866880347188,0.5367998578975597,113,66
64,98.75904924999895,-0.8215868823660724,115,60
72,99.05298999010516,-0.5776839251361461,119,62
76,94.9295697165586,0.004263281839064881,123,79
109,93.30155950315604,-0.9599765527424504,135,77
99,91.06800704002363,-0.4942900424748824,127,66
104,99.53402879382095,0.034802579649932275,94,80
91,90.60226944900297,-0.9700776034873986,94,76
88,92.9765027756828,-0.4709074275479166,108,87
110,92.98066201170005,0.028061638951738965,127,71
117,93.20401286140215,0.14629849596249134,117,75
62,91.64286843272409,0.8515033861106109,115,83
115,97.83161430923697,0.2906912465012157,131,69
99,91.2249786196599,-0.17052839494001248,112,82
93,96.34906659153162,0.8607023542661356,135,75
99,91.23846026705817,0.5697659667755886,138,79
86,90.70535637592957,-0.5999821577745048,119,77
72,99.09429503685877,-0.7383152773023605,92,74
104,91.90128766318706,0.3516232714854659,117,82
92,98.21250154559704,0.11976633115396762,122,70
65,95.44630871107135,0.5793472275855114,131,77
83,90.7785651960877,0.47761010015737293,92,65
78,99.55448191438067,0.2504230677150301,94,60
75,92.46961166991892,0.9727643432577844,108,89
99,98.59645345352607,0.06717946022081733,131,82
87,91.68810005784565,-0.7737884869965603,137,66
92,98.53942882141853,0.6565471296319767,90,71
118,90.13228812905294,-0.496293275308582,127,79
118,95.11780456569481,0.5546042962878366,98,63
107,97.69442579421556,0.9142141920001028,94,69
100,99.34795517492783,0.3935910279286825,135,80
72,99.09202136206487,0.1920603218996022,131,61
102,98.19624869547644,-0.07922764864991882,123,68
104,98.88191349661304,-0.2711802680091935,126,69
84,91.99219685837076,-0.2939904980563275,122,79
112,92.8418429571173,0.2727454114191812,114,70
101,92.88968524921059,0.5025462338754918,131,84
95,93.77053931001699,0.35703413896882874,118,73
86,93.93320670385188,-0.6031797976128745,114,62
97,95.44555324654675,-0.012025639713017622,98,84
119,91.59879763366442,0.583280144366126,92,60
66,96.9124666378599,-0.04859184362188751,104,66
64,91.67566539304507,0.07324655947098768,93,63
102,93.10308482104547,0.5422720963416443,134,66
104,95.03345130606154,0.322530612530183,127,75
117,97.96440561523477,-0.1813101582352148,109,89
116,97.39469233238728,0.7908254223884379,138,69
110,96.45534356410522,-0.6748658626730428,112,74
90,91.5577326058017,0.9910328971806495,126,75
82,95.47045345615578,-0.7622948430475256,136,65
101,90.87446501799886,-0.9701000577915222,97,63
69,93.7736317679665,0.7800378022975294,126,63
91,94.1351653028996,-0.5100929832680878,134,83
102,90.39811439445754,0.4593992548934418,122,82
112,92.73988099469972,0.6220307498641386,122,63
89,99.5564946726649,0.7179727820642336,96,86
98,99.5363260782969,0.9831884713283334,111,81
90,93.5232705425254,-0.41192057992000186,94,81
77,90.43100108948325,0.42048668385451826,135,76
95,91.79094939328182,-0.7692002834383436,104,72
61,93.9221779343354,-0.1863814172863012,110,61
73,99.4777969796923,0.6959433866251807,114,79
72,91.41199063537185,-0.2646839078817833,106,65
88,97.63515843668212,0.1821907610712281,139,81
71,91.08682539374692,0.007546887449268125,96,60
98,99.81257577391277,0.2919030622240901,139,67
61,93.81616499109136,0.9457887787753898,108,77
91,97.75234538899056,-0.8885289469971958,96,88
72,93.42591082811131,0.14792303500325943,129,80
105,96.27668877158808,0.7260575585005695,134,63
86,91.92016084740037,-0.03723457650314499,139,64
108,91.46021019296963,-0.8429456281168544,113,64
100,99.38064139568131,0.12107870483354177,100,74
76,99.17647277904433,-0.3358522183523591,130,69
99,98.87468940212882,-0.6901164293241282,90,67
90,96.25433450166594,0.698069026566946,121,85
93,98.08268211216279,0.04319902598224323,129,66
119,90.69036936911375,0.8665528247581333,133,71
83,93.34789041890679,0.6120330092061381,91,89
104,93.13703124757156,0.3859435875473347,104,84
94,96.35645321952613,-0.9899489932693761,110,87
107,93.55957773470641,-0.1443530867235001,113,70
65,91.48506781643681,-0.6050274366959354,139,72
78,95.96467075413544,0.8215958220977355,106,74
89,98.14383920669081,-0.6508320306472795,136,76
66,93.82123494459974,-0.427879896681429,98,81
69,91.32268715098482,0.03367353546899832,124,81
100,91.96688197312822,-0.4732727620038415,109,77
91,92.37483305169384,-0.5802706454417577,108,86
93,92.99897592994536,0.19819865020550487,107,67
87,96.4279507050631,-0.8221409544899523,109,65
119,96.00945484537719,-0.8836644825581506,119,70
74,96.9607986156704,-0.2555094096278572,129,88
89,93.62501984531514,0.44132890901572464,90,85
96,98.23997651879978,0.10961351654789597,113,68
88,92.04087661155761,-0.1542470630664423,113,85
81,94.69040747518154,0.13150312844916479,136,64
63,98.0093872154143,-0.2690970306934528,108,66
79,91.8015864773262,0.8722926708642258,119,81
91,91.09863113740784,-0.8901902181784513,115,86
95,98.83683967687989,0.3467829580596704,131,74
109,93.42929662759195,0.7825653296555011,133,80
63,96.83870124909032,0.6077694174705068,127,81
86,90.25348604263938,-0.6319179303571065,118,63
76,96.9004688840945,-0.4081473020394233,102,78
71,93.1610131154697,0.4340958774142094,93,72
81,90.55740853587442,-0.8314588816384689,134,60
76,96.09812761548118,0.6237233996651681,106,60
69,92.40803816073173,0.43781388920958064,122,81
113,93.8680724205188,0.45921329847068515,94,73
60,90.80580812286513,-0.7995172594648172,117,68
81,91.47163251094945,0.4355210896324617,113,83
85,92.97977235495844,0.35963625043993996,106,71
115,90.89759500560157,0.6618449816437011,139,77
118,99.10826264686315,-0.916808087487061,128,68
77,90.06047043183979,-0.9537786630644156,137,67
109,94.83860218864311,-0.25398580024287853,129,89
73,91.23247458132552,-0.7024234323016942,133,73
106,93.07679089477949,0.11676895514044383,135,87
88,99.26059559818265,0.8346978030134977,100,68
71,91.61694553273986,-0.21704053933196854,101,79
95,99.65832319718332,0.6899007545452083,102,84
118,92.05794376989422,-0.999518250964267,97,61
94,97.4156610846683,-0.6629707130816316,90,88
111,95.46677264897312,-0.9391529206918288,98,60
71,98.84478727596759,-0.3437056389698627,117,72
66,95.53993255503131,0.8163791913930056,91,84
88,95.34559219156309,-0.8060957528020245,103,69
70,91.954580003684,0.21281955348760073,102,67
92,91.66229362051659,-0.09700812176111162,137,66
65,99.16489151115515,0.8769364247316249,91,89
106,93.27838198850034,-0.7549617149258123,93,88
74,93.72082254962896,-0.5759442989955421,101,83
91,97.59823658428388,-0.9409160627770135,137,71
110,93.38823482422808,-0.1321295007372525,99,76
70,99.52062446639003,-0.4443342008706914,92,89
117,97.379277689988,0.7398118677806418,93,84
82,95.9742924257342,0.2098816263955101,95,71
85,98.80895160544753,0.22818147595140337,112,75
93,90.49605908349483,0.06382139376260487,94,69
105,92.57062692189209,-0.816299325541598,139,86
93,94.6503633422091,-0.10996263254928951,92,84
88,92.26978539471521,0.9990103794170331,99,71
63,97.43905187302153,0.6704585816920297,132,70
76,99.19208031053725,0.7869181083342318,108,84
94,94.23770119930923,0.6464527184929989,103,88
72,93.42132600111896,-0.7939166131380346,110,73
100,99.61550732137566,-0.5451034918704007,132,81
98,94.44852432827541,-0.9937566972871807,117,79
74,94.89048400449283,-0.39297975024377707,110,72
114,93.51649872341905,-0.7827851953070148,125,61
88,99.09548473012138,-0.054413309396833975,113,86
88,95.6895548328185,0.35425497714780385,127,79
70,97.62174587181644,0.7490105900761541,106,66
111,98.11806718350886,0.4984343301817964,111,60
91,93.41849041917258,0.8771711915570104,108,89
61,94.3369433132038,-0.8922034192124224,134,84
106,98.48471774406265,-0.9756403291669171,99,62
73,93.63255351675811,0.3226762276724253,100,88
79,97.9393513345185,-0.42129517955550755,127,88
81,99.40992322574436,-0.49299796778845373,91,79
70,96.23210373068007,-0.33822582461241146,122,71
86,97.41627287451888,-0.4604078842152717,132,64
62,98.05097312041136,0.02287281260317453,120,71
76,98.45039648896642,-0.11970310555173502,137,88
103,93.95053337856795,0.024857102753312654,124,62
115,90.51263459175998,0.34542722300087236,126,79
87,94.01876271236739,-0.22573898205770337,136,64
88,96.7375622978409,-0.4973846257156864,136,87
80,94.50350385780793,-0.6675989263825091,125,60
106,97.48963150860399,-0.30105176093474895,112,75
75,93.56982429468664,0.4836129504923441,125,89
96,96.3474414110403,0.5134098202229391,129,68
118,91.86419804853975,0.3338107733684206,128,69
79,97.49369436644957,-0.5319436493862508,115,88
65,95.45695968813025,0.17617249170939542,114,69
78,92.04064388546601,0.14137932315369595,106,72
116,92.91911173497807,-0.031467603780549025,104,75
64,97.48608708581833,0.09995797276772844,126,89
62,94.82601235661521,-0.016418734752663866,134,79
118,92.16031440393073,0.13091273214821642,93,88
60,99.67271190370298,0.4310119092422575,111,84
117,97.15125019816888,-0.7807436111931205,106,63
119,99.57134832539796,0.49925150429804743,111,73
97,94.27105045360344,-0.7282276997448116,106,76
74,94.7510034069172,-0.8667440031792506,103,87
93,98.9795521618502,0.9521593724429351,103,64
94,95.25049340245384,0.9139835377408829,106,72
108,97.07278911905667,-0.8791269101188719,97,84
84,92.5217287749553,-0.1134931170500757,123,62
83,94.4672646870264,-0.6275101234004505,115,64
71,91.23449865810355,-0.02931020573116383,134,75
77,92.05980035876962,0.6603544859991748,119,78
74,90.0094341526763,0.9012235494857805,111,87
103,90.3926505164866,0.2685053069030747,105,78
75,99.7728382317693,-0.2921886655763659,119,76
86,92.42353695136762,0.20665113128919677,105,77
67,96.63310709504002,-0.3759973877830993,127,77
119,98.39099698799612,0.8196472816641207,113,84
105,95.50660459236565,0.7408009262116739,125,82
84,91.53144500083957,0.11646350055932198,124,67
76,97.28116437336166,-0.3504021692392789,95,77
88,96.00251410099582,-0.4132206488340433,93,68
112,97.31250589347376,-0.9331640105898811,107,88
67,97.69746622857087,0.6316417020505904,95,78
74,99.75410367684745,-0.09923357392198406,115,69
86,95.7356328002671,-0.34973414319947116,126,88
105,93.41641112690601,-0.05777929000449222,116,61
109,96.48464556900237,0.637475980909304,130,87
111,90.68440709242626,-0.7507715845849576,100,76
66,98.97397318321586,0.7153119764836546,127,84
62,91.19381011338197,0.795017670216708,105,83
88,93.27842837885818,0.8934158300677764,108,72
103,98.1574538062612,-0.20502401515474444,132,87
112,95.97312378330712,-0.5657191919246563,104,70
83,93.93635520277442,-0.252718363066603,115,75
119,94.73435659375022,-0.33417580753719345,130,79
117,98.5454739320218,-0.6476921749942799,120,66
62,93.40004386059893,0.21453334020297588,108,87
79,98.69649684812171,-0.04675167898274224,113,89
105,90.88134430976692,0.7314019846480073,98,62
74,97.7679843720863,-0.9357808390358835,112,75
84,98.47547633054737,0.2877358551102527,93,78
89,91.81817652837339,0.5258977570231222,99,79
73,94.30346532372201,0.5189731383766141,98,75
66,91.65499774663655,0.7721479341910502,108,61
76,97.06604128994218,0.45806748565898814,104,73
103,95.35347768061656,0.8556201232953926,123,85
79,96.35323346708321,-0.3346868003582171,131,79
95,91.9648696695621,0.006418833503086141,108,69
68,92.11745862052419,-0.9718406734342186,138,78
97,90.41497325509907,-0.9860848253934176,110,83
107,93.2206753519573,-0.5197467590969602,123,70
116,95.59744661333676,-0.7983856057218295,106,77
119,98.57934913997329,-0.4795772641284928,107,70
81,96.66927447458681,-0.6459134109432052,106,68
113,94.35396323399752,-0.9429599503227035,91,78
112,99.53120114394137,0.8186082928120988,90,79
112,97.19245200575831,-0.983553737222217,132,88
61,99.3016520286255,0.4721642886741708,99,69
83,95.27587973272166,-0.6957042261609669,126,89
67,92.5890427479314,0.8244592439992,137,85
70,90.52826686364722,0.7855918791797716,94,62
72,97.2608485148385,0.30780229273851467,101,62
76,91.21302998005534,0.3444682996012103,125,83
67,93.02775128271968,-0.9893217160606229,120,67
80,95.32470907883898,0.9697431322272041,127,88
77,95.64416587779748,0.7556652071516288,98,88
89,96.00583196987137,0.790212451460184,133,65
77,91.662553303497,0.3184890741017439,115,79
105,93.79737404821648,-0.31042614269092694,104,60
106,96.17194227116967,0.7872972981809616,105,79
90,99.69818864633785,-0.4169661436976153,102,83
97,97.27631137699689,0.12542308668440572,114,65
91,99.22603757093958,-0.8005380553122352,119,61
70,97.62212058314176,0.8439112602655003,96,78
104,95.917169688924,-0.7184590844575733,93,87
84,91.92023369136345,-0.5502063885391855,132,66
92,96.66685651892513,0.11626831625642997,129,70
119,96.23379565959907,0.5281860004259631,127,70
97,96.02469170457266,0.2387026118725979,119,63
100,94.8978586798824,-0.5357321743996877,99,79
67,95.28656603989276,-0.9981139149450193,119,75
70,93.34442527118104,0.5143011606148784,128,64
81,95.19312692642303,0.9704146518221874,96,83
110,91.97555905678479,0.6198262406121808,125,89
83,98.05174397360376,-0.07958676368676931,124,89
100,91.85776954698707,0.8075345227982131,113,66
76,90.84966289889466,-0.18030465376329996,128,84
71,94.36246026357158,0.049868168486935094,125,75
116,96.58307439506062,-0.04574046520863351,134,74
105,94.37716824933541,-0.1047522546689501,109,64
91,92.76754131951309,0.5503815385878115,138,60
74,95.58171183890441,0.053537814538983985,121,79
75,93.470023354122,-0.36656575594956786,128,81
113,99.32867690126633,-0.48368366468304336,138,81
81,99.22645139603571,-0.9245053660651332,115,68
87,95.02371819972096,0.16639032376609197,115,85
79,93.27883994018258,-0.5400771691979316,125,88
92,97.3713241395664,-0.7037321559672338,132,80
69,90.36712943483067,0.3076599276553553,124,64
99,94.74769006043651,0.3624185156430977,132,81
91,93.36323394270333,0.5043097845153319,124,86
109,99.20535885102555,0.0071537926771829685,101,65
119,90.12003027272682,0.7881092104077732,122,62
92,95.52814875718349,0.8726855067964556,125,65
61,97.40663581066626,0.6147418795849788,103,67
92,94.85017987524041,0.27118696401637443,122,87
92,90.85403030162722,-0.39255809281762266,135,65
100,99.72461390027902,0.9658898432404424,134,75
72,95.18010431376098,-0.4517276656161233,134,87
89,96.14186244319012,-0.5946861560191379,113,75
92,92.36609782707507,-0.11569177242683448,104,86
72,94.83498085106804,-0.8863188585752231,120,80
111,94.29149491958322,0.9569889293435816,106,62
85,90.74895842001983,0.17686711283284962,101,76
81,91.06160353547467,0.1139041833283505,111,80
98,98.37472519618774,0.3115925597994398,112,65
61,92.39819952206591,-0.0059527044455867095,115,89
97,91.9495827149863,-0.9358729658109168,103,65
98,95.04911451250139,0.22462257768079352,101,89
85,97.68747131362512,0.4323477539128613,139,81
105,90.61946518578988,-0.1665018787518937,93,78
117,95.76807919638256,0.5145911441423858,135,79
109,91.19210442840573,-0.5459974013231588,102,74
74,90.36461050825619,-0.557446817867632,107,78
93,90.52743952162217,-0.6771660246248521,132,61
101,98.34164108208441,-0.2560104804216763,117,67
114,91.17972483628061,0.6940240707781671,127,66
103,90.45151364412293,0.6558241242981286,130,86
108,94.37899887142912,-0.2343515840729924,133,67
99,98.43993471942025,0.17823747196047313,108,72
70,92.62408376489302,0.44163263294983124,135,81
62,94.21712617525917,-0.517586450743954,136,86
118,90.39922532563752,-0.6637178282105058,132,74
65,94.49078514134877,0.944191986424622,127,71
68,95.77613080637134,0.23511462641923697,135,74
65,95.70907053752146,0.9628314436673278,92,73
68,93.32426692174366,-0.3244880257355418,108,66
98,93.15533180663135,0.406063399948263,109,76
90,91.06623618936598,-0.5547927269175246,114,85
91,93.66798320646268,-0.47759965745217414,100,64
100,90.99494668872964,0.023804242539247955,106,79
109,97.66595944712051,-0.36076374898385755,138,69
71,99.66274297748186,-0.6647568723188311,124,78
67,99.70074456666707,-0.474238596021348,103,77
67,98.65071099375393,-0.9285032110682707,128,89
109,96.0079214933962,0.4088472429549732,108,89
87,97.0086569724388,-0.015766685828276783,92,84
79,92.85205802680414,-0.8115138671909488,123,83
106,96.30770420172621,-0.6566120137430176,138,69
118,94.55649549439877,-0.794930923774712,130,61
66,94.82017339776932,0.22518561655175295,111,65
70,97.57776560375157,-0.8115792727750124,127,62
79,92.81918355597251,0.5085646660704322,116,78
75,93.1803961169452,-0.9589781613592177,110,64
63,99.24641791128637,-0.5012484240082158,130,66
65,90.56224294850972,0.7813333517838144,120,66
117,94.8563429841334,0.43706263624449204,116,86
81,99.12800800407862,-0.8540633341486246,126,69
85,96.10363007818157,0.6422522089703595,91,60
62,95.46407074212132,-0.01392975691959042,136,70
100,92.49744179229356,0.6935660543376585,98,82
119,93.43275489064449,0.2014795489007868,108,66
101,98.52048415804693,0.36366606406571744,131,65
73,95.59218131768458,0.9870031207914163,125,65
70,95.1474219375678,-0.5353289081519637,99,72
77,90.9957971354003,0.2478911495227767,129,75
113,90.16028156455123,-0.07935721988520328,134,72
71,99.63685188687049,-0.9210960941546171,128,61
82,93.76986167286842,-0.9710587169942699,96,78
71,96.03213062099505,-0.7615428443642827,93,78
72,90.79715073187285,0.29818348107709625,104,88
84,96.83114285723046,0.1343261758267844,101,78
104,99.32566708705961,0.10685912232745487,137,77
110,95.75665252997419,-0.9362864749434798,95,84
117,91.2611532237541,-0.061394007279985896,98,65
78,95.81721527473476,0.8492456356850571,124,61
114,97.66347213104652,-0.2048162613787068,97,78
105,94.06416536574018,0.24984493957691267,96,85
95,98.79837747941468,0.5596373512462871,93,65
104,96.48682953357364,0.5678505582837752,102,79
67,98.99248918289203,0.038560164790542695,108,82
88,96.23505311247337,0.7159038908046726,96,81
114,91.31287972004824,-0.21724381327250608,99,74
112,93.0969171110519,0.7773864295695967,114,65
114,92.01794948252457,-0.5195456672089094,133,87
91,99.08826497716862,-0.4395671860188579,124,62
110,97.60400067287483,-0.8937587516019978,114,70
103,96.76398368910006,0.5911636730845657,118,67
77,93.00966319631621,-0.16588952753458885,101,84
65,91.84044772050214,-0.5417667721772019,136,81
77,97.56451087988911,-0.5364194447668407,129,77
78,94.7415794587908,0.8027998824584663,101,76
81,92.25789552150628,0.6678332009220738,95,78
96,96.16621978165276,0.10706177071436662,99,78
91,90.40333852138453,0.23222160083144217,91,83
115,93.26170254128253,-0.05134885889941798,134,80
100,94.68556994591134,-0.21666691424238227,114,76
118,91.47958334109406,0.830953762436663,96,86
62,99.8465447759084,-0.7487745929593959,129,63
87,92.09097364589614,-0.1631064205675441,112,66
69,91.30353130043265,-0.3108761840242493,137,64
110,92.03534873886896,-0.0036985594977032576,100,85
94,97.69061133159724,-0.08473625090964987,125,88
88,94.25505659271843,0.03777906330216285,138,75
113,95.65415939752538,-0.7201620455460118,137,65
74,90.21009156986361,0.026283003026554175,112,73
92,90.34431308573315,-0.5151623722255783,132,85
66,94.45825549827016,-0.6313373020236175,96,79
71,98.16655243201623,-0.8703315624276176,116,61
108,98.85238878707565,0.5253051175122818,102,84
89,90.8670656759564,-0.14511615828688007,106,77
80,95.38363102101023,0.2532873666235167,121,77
90,99.1322968627927,0.4551866866094867,115,72
117,93.87972754397886,0.358633330627107,111,87
